SpectraSuite Datei
++++++++++++++++++++++++++++++++++++
Datum: Fri Jun 02 11:35:19 CEST 2023
Benutzer: TAM
Dark-Spektrum vorhanden: Nein
Referenz-Spektrum vorhanden: Nein
Zahl der probierten Teilspektren: 1
Spektrometer: FLMS04432
Integrationszeit (usec): 100000 (FLMS04432)
Spektren Durchschnitt berechnet: 1 (FLMS04432)
Boxcar Glättung: 0 (FLMS04432)
Dunkelstromkorrektur: Nein (FLMS04432)
Puls/Lampe aktiviert: Nein (FLMS04432)
Correct for Detector Non-linearity: Nein (FLMS04432)
Streulichtkorrektur: Nein (FLMS04432)
Anzahl Pixel in verarbeitetem Spektrum: 2048
>>>>>Begin Processed Spectral Data<<<<<
188,46	2378,68
188,85	2378,68
189,24	2378,68
189,63	2342,27
190,02	2318,00
190,41	2298,58
190,80	2337,42
191,19	2388,39
191,58	2376,25
191,96	2364,11
192,35	2427,22
192,74	2402,95
193,13	2458,78
193,52	2480,62
193,91	2635,96
194,30	2526,74
194,69	2509,75
195,08	2589,85
195,47	2631,11
195,86	2631,11
196,24	2890,82
196,63	2684,51
197,02	2679,65
197,41	2730,62
197,80	2686,94
198,19	2660,24
198,58	2694,22
198,96	2662,66
199,35	2745,19
199,74	2713,63
200,13	2798,59
200,52	2718,49
200,91	2779,17
201,29	2757,32
201,68	2752,47
202,07	2725,77
202,46	2818,00
202,85	2856,84
203,24	2808,30
203,62	2864,12
204,01	2728,20
204,40	2842,28
204,79	2769,46
205,17	2822,86
205,56	2788,88
205,95	2774,32
206,34	2747,62
206,73	2788,88
207,11	2771,89
207,50	2774,32
207,89	2723,34
208,28	2759,75
208,66	2682,08
209,05	2713,63
209,44	2694,22
209,83	2737,91
210,21	2784,02
210,60	2754,90
210,99	2737,91
211,37	2781,60
211,76	2784,02
212,15	2767,03
212,54	2757,32
212,92	2784,02
213,31	2737,91
213,70	2771,89
214,08	2803,44
214,47	2716,06
214,86	2742,76
215,24	2769,46
215,63	2708,78
216,02	2791,31
216,40	2684,51
216,79	2762,18
217,18	2754,90
217,56	2750,04
217,95	2801,01
218,33	2669,94
218,72	2757,32
219,11	2796,16
219,49	2740,33
219,88	2699,07
220,27	2818,00
220,65	2711,21
221,04	2784,02
221,42	2720,92
221,81	2759,75
222,20	2677,23
222,58	2759,75
222,97	2771,89
223,35	2837,42
223,74	2716,06
224,13	2723,34
224,51	2769,46
224,90	2752,47
225,28	2793,73
225,67	2796,16
226,05	2762,18
226,44	2759,75
226,82	2723,34
227,21	2728,20
227,59	2803,44
227,98	2689,36
228,36	2788,88
228,75	2747,62
229,14	2730,62
229,52	2801,01
229,91	2701,50
230,29	2769,46
230,68	2730,62
231,06	2711,21
231,45	2771,89
231,83	2774,32
232,21	2774,32
232,60	2691,79
232,98	2701,50
233,37	2708,78
233,75	2737,91
234,14	2805,87
234,52	2750,04
234,91	2793,73
235,29	2745,19
235,68	2754,90
236,06	2754,90
236,44	2813,15
236,83	2786,45
237,21	2820,43
237,60	2796,16
237,98	2733,05
238,37	2835,00
238,75	2740,33
239,13	2723,34
239,52	2740,33
239,90	2742,76
240,29	2764,61
240,67	2784,02
241,05	2723,34
241,44	2803,44
241,82	2762,18
242,20	2757,32
242,59	2815,58
242,97	2689,36
243,35	2791,31
243,74	2733,05
244,12	2822,86
244,51	2720,92
244,89	2798,59
245,27	2801,01
245,66	2767,03
246,04	2713,63
246,42	2735,48
246,80	2677,23
247,19	2737,91
247,57	2827,71
247,95	2708,78
248,34	2752,47
248,72	2699,07
249,10	2793,73
249,49	2769,46
249,87	2701,50
250,25	2747,62
250,63	2793,73
251,02	2839,85
251,40	2822,86
251,78	2813,15
252,16	2677,23
252,55	2810,72
252,93	2801,01
253,31	2694,22
253,69	2844,70
254,08	2786,45
254,46	2839,85
254,84	2718,49
255,22	2801,01
255,60	2754,90
255,99	2735,48
256,37	2781,60
256,75	2706,35
257,13	2776,74
257,51	2733,05
257,90	2733,05
258,28	2776,74
258,66	2771,89
259,04	2793,73
259,42	2820,43
259,81	2849,56
260,19	2798,59
260,57	2786,45
260,95	2737,91
261,33	2854,41
261,71	2825,29
262,09	2764,61
262,48	2735,48
262,86	2798,59
263,24	2759,75
263,62	2725,77
264,00	2728,20
264,38	2752,47
264,76	2769,46
265,14	2740,33
265,53	2703,93
265,91	2769,46
266,29	2796,16
266,67	2740,33
267,05	2759,75
267,43	2708,78
267,81	2716,06
268,19	2847,13
268,57	2764,61
268,95	2842,28
269,33	2784,02
269,71	2864,12
270,09	2691,79
270,47	2733,05
270,85	2791,31
271,23	2825,29
271,62	2803,44
272,00	2808,30
272,38	2737,91
272,76	2791,31
273,14	2793,73
273,52	2718,49
273,90	2808,30
274,28	2818,00
274,66	2776,74
275,04	2839,85
275,42	2837,42
275,80	2740,33
276,18	2813,15
276,55	2788,88
276,93	2781,60
277,31	2769,46
277,69	2822,86
278,07	2801,01
278,45	2745,19
278,83	2767,03
279,21	2822,86
279,59	2864,12
279,97	2805,87
280,35	2820,43
280,73	2818,00
281,11	2737,91
281,49	2803,44
281,87	2779,17
282,25	2742,76
282,62	2764,61
283,00	2740,33
283,38	2820,43
283,76	2798,59
284,14	2718,49
284,52	2737,91
284,90	2808,30
285,28	2771,89
285,65	2784,02
286,03	2754,90
286,41	2798,59
286,79	2774,32
287,17	2723,34
287,55	2767,03
287,93	2713,63
288,30	2740,33
288,68	2786,45
289,06	2815,58
289,44	2798,59
289,82	2757,32
290,20	2759,75
290,57	2774,32
290,95	2798,59
291,33	2905,38
291,71	2827,71
292,09	2822,86
292,46	2835,00
292,84	2774,32
293,22	2934,51
293,60	2919,95
293,97	2898,10
294,35	2968,49
294,73	3024,32
295,11	3012,18
295,48	3009,76
295,86	3145,68
296,24	3174,81
296,62	3179,66
296,99	3148,11
297,37	3123,84
297,75	3109,27
298,13	3051,02
298,50	3135,97
298,88	3143,25
299,26	3291,31
299,63	3284,03
300,01	3453,94
300,39	3560,74
300,77	3699,09
301,14	3881,13
301,52	3929,67
301,90	4034,04
302,27	4184,53
302,65	4075,31
303,03	4184,53
303,40	4189,39
303,78	4043,75
304,16	4017,05
304,53	3796,18
304,91	3725,79
305,28	3602,00
305,66	3538,89
306,04	3412,67
306,41	3390,83
306,79	3383,55
307,17	3191,80
307,54	3116,55
307,92	3097,14
308,29	3089,85
308,67	3053,45
309,05	2961,21
309,42	2963,64
309,80	2973,35
310,17	3046,16
310,55	2975,77
310,92	3060,73
311,30	3036,46
311,68	3046,16
312,05	3077,72
312,43	2985,48
312,80	2978,20
313,18	2951,50
313,55	2859,27
313,93	2851,99
314,30	2854,41
314,68	2796,16
315,05	2808,30
315,43	2825,29
315,80	2835,00
316,18	2784,02
316,55	2832,57
316,93	2842,28
317,30	2808,30
317,68	2808,30
318,05	2868,98
318,43	2771,89
318,80	2820,43
319,18	2730,62
319,55	2769,46
319,93	2844,70
320,30	2825,29
320,68	2835,00
321,05	2779,17
321,43	2808,30
321,80	2750,04
322,17	2837,42
322,55	2769,46
322,92	2745,19
323,30	2745,19
323,67	2759,75
324,05	2779,17
324,42	2784,02
324,79	2713,63
325,17	2762,18
325,54	2774,32
325,92	2774,32
326,29	2864,12
326,66	2810,72
327,04	2801,01
327,41	2830,14
327,78	2810,72
328,16	2784,02
328,53	2747,62
328,91	2757,32
329,28	2776,74
329,65	2825,29
330,03	2844,70
330,40	2808,30
330,77	2798,59
331,15	2774,32
331,52	2803,44
331,89	2827,71
332,27	2803,44
332,64	2779,17
333,01	2801,01
333,38	2781,60
333,76	2837,42
334,13	2776,74
334,50	2774,32
334,88	2757,32
335,25	2708,78
335,62	2784,02
335,99	2798,59
336,37	2786,45
336,74	2784,02
337,11	2813,15
337,48	2733,05
337,86	2837,42
338,23	2856,84
338,60	2815,58
338,97	2835,00
339,35	2801,01
339,72	2822,86
340,09	2779,17
340,46	2788,88
340,84	2774,32
341,21	2839,85
341,58	2767,03
341,95	2798,59
342,32	2822,86
342,70	2864,12
343,07	2835,00
343,44	2730,62
343,81	2788,88
344,18	2786,45
344,55	2779,17
344,93	2750,04
345,30	2764,61
345,67	2774,32
346,04	2900,53
346,41	2764,61
346,78	2851,99
347,15	2737,91
347,53	2898,10
347,90	2859,27
348,27	2767,03
348,64	2762,18
349,01	2779,17
349,38	2781,60
349,75	2747,62
350,12	2754,90
350,49	2835,00
350,87	2866,55
351,24	2844,70
351,61	2774,32
351,98	2786,45
352,35	2798,59
352,72	2788,88
353,09	2759,75
353,46	2733,05
353,83	2725,77
354,20	2784,02
354,57	2730,62
354,94	2798,59
355,31	2810,72
355,68	2835,00
356,05	2805,87
356,42	2779,17
356,79	2750,04
357,16	2703,93
357,53	2793,73
357,90	2832,57
358,27	2803,44
358,64	2774,32
359,01	2805,87
359,38	2820,43
359,75	2801,01
360,12	2805,87
360,49	2844,70
360,86	2793,73
361,23	2796,16
361,60	2830,14
361,97	2784,02
362,34	2813,15
362,71	2723,34
363,08	2813,15
363,45	2660,24
363,82	2786,45
364,19	2767,03
364,56	2791,31
364,93	2767,03
365,30	2851,99
365,66	2793,73
366,03	2813,15
366,40	2786,45
366,77	2730,62
367,14	2810,72
367,51	2815,58
367,88	2776,74
368,25	2769,46
368,62	2813,15
368,98	2844,70
369,35	2847,13
369,72	2822,86
370,09	2750,04
370,46	2791,31
370,83	2808,30
371,20	2779,17
371,56	2820,43
371,93	2784,02
372,30	2752,47
372,67	2813,15
373,04	2759,75
373,41	2810,72
373,77	2805,87
374,14	2849,56
374,51	2771,89
374,88	2745,19
375,25	2737,91
375,61	2808,30
375,98	2854,41
376,35	2781,60
376,72	2781,60
377,08	2837,42
377,45	2856,84
377,82	2837,42
378,19	2815,58
378,55	2830,14
378,92	2822,86
379,29	2808,30
379,66	2798,59
380,02	2803,44
380,39	2791,31
380,76	2757,32
381,13	2803,44
381,49	2730,62
381,86	2733,05
382,23	2830,14
382,59	2798,59
382,96	2742,76
383,33	2706,35
383,70	2839,85
384,06	2733,05
384,43	2822,86
384,80	2694,22
385,16	2767,03
385,53	2830,14
385,90	2781,60
386,26	2825,29
386,63	2830,14
387,00	2764,61
387,36	2825,29
387,73	2742,76
388,09	2866,55
388,46	2742,76
388,83	2728,20
389,19	2856,84
389,56	2733,05
389,93	2793,73
390,29	2786,45
390,66	2798,59
391,02	2769,46
391,39	2718,49
391,75	2781,60
392,12	2798,59
392,49	2895,68
392,85	2827,71
393,22	2764,61
393,58	2815,58
393,95	2730,62
394,31	2837,42
394,68	2827,71
395,05	2737,91
395,41	2847,13
395,78	2856,84
396,14	2803,44
396,51	2774,32
396,87	2803,44
397,24	2808,30
397,60	2827,71
397,97	2762,18
398,33	2747,62
398,70	2771,89
399,06	2735,48
399,43	2798,59
399,79	2791,31
400,16	2818,00
400,52	2825,29
400,89	2771,89
401,25	2764,61
401,62	2796,16
401,98	2827,71
402,35	2784,02
402,71	2747,62
403,07	2767,03
403,44	2818,00
403,80	2769,46
404,17	2752,47
404,53	2832,57
404,90	2793,73
405,26	2784,02
405,62	2774,32
405,99	2747,62
406,35	2844,70
406,72	2762,18
407,08	2825,29
407,44	2815,58
407,81	2788,88
408,17	2793,73
408,54	2728,20
408,90	2779,17
409,26	2822,86
409,63	2798,59
409,99	2888,39
410,35	2788,88
410,72	2808,30
411,08	2737,91
411,44	2774,32
411,81	2854,41
412,17	2754,90
412,53	2861,70
412,90	2735,48
413,26	2825,29
413,62	2847,13
413,99	2762,18
414,35	2723,34
414,71	2835,00
415,08	2730,62
415,44	2769,46
415,80	2830,14
416,16	2810,72
416,53	2788,88
416,89	2788,88
417,25	2769,46
417,61	2844,70
417,98	2830,14
418,34	2774,32
418,70	2808,30
419,06	2813,15
419,43	2745,19
419,79	2796,16
420,15	2849,56
420,51	2788,88
420,88	2733,05
421,24	2742,76
421,60	2784,02
421,96	2786,45
422,32	2813,15
422,69	2825,29
423,05	2733,05
423,41	2733,05
423,77	2793,73
424,13	2713,63
424,50	2769,46
424,86	2791,31
425,22	2791,31
425,58	2805,87
425,94	2791,31
426,30	2842,28
426,67	2825,29
427,03	2786,45
427,39	2847,13
427,75	2796,16
428,11	2805,87
428,47	2803,44
428,83	2832,57
429,19	2798,59
429,56	2803,44
429,92	2832,57
430,28	2708,78
430,64	2781,60
431,00	2832,57
431,36	2708,78
431,72	2791,31
432,08	2769,46
432,44	2820,43
432,80	2844,70
433,16	2730,62
433,52	2805,87
433,89	2808,30
434,25	2815,58
434,61	2856,84
434,97	2813,15
435,33	2774,32
435,69	2837,42
436,05	2788,88
436,41	2832,57
436,77	2878,69
437,13	2864,12
437,49	2788,88
437,85	2788,88
438,21	2844,70
438,57	2864,12
438,93	2827,71
439,29	2779,17
439,65	2798,59
440,01	2803,44
440,37	2784,02
440,73	2832,57
441,09	2779,17
441,45	2735,48
441,81	2825,29
442,16	2786,45
442,52	2815,58
442,88	2900,53
443,24	2791,31
443,60	2808,30
443,96	2851,99
444,32	2779,17
444,68	2830,14
445,04	2776,74
445,40	2842,28
445,76	2791,31
446,12	2759,75
446,48	2805,87
446,83	2750,04
447,19	2737,91
447,55	2718,49
447,91	2764,61
448,27	2803,44
448,63	2764,61
448,99	2725,77
449,34	2730,62
449,70	2801,01
450,06	2796,16
450,42	2801,01
450,78	2762,18
451,14	2764,61
451,50	2815,58
451,85	2769,46
452,21	2781,60
452,57	2801,01
452,93	2771,89
453,29	2871,40
453,64	2818,00
454,00	2728,20
454,36	2849,56
454,72	2801,01
455,08	2776,74
455,43	2788,88
455,79	2754,90
456,15	2752,47
456,51	2791,31
456,86	2808,30
457,22	2784,02
457,58	2854,41
457,94	2694,22
458,29	2801,01
458,65	2837,42
459,01	2801,01
459,37	2764,61
459,72	2801,01
460,08	2844,70
460,44	2813,15
460,79	2801,01
461,15	2825,29
461,51	2839,85
461,86	2851,99
462,22	2835,00
462,58	2820,43
462,94	2798,59
463,29	2830,14
463,65	2728,20
464,01	2764,61
464,36	2762,18
464,72	2813,15
465,08	2747,62
465,43	2764,61
465,79	2752,47
466,14	2864,12
466,50	2844,70
466,86	2779,17
467,21	2796,16
467,57	2771,89
467,93	2803,44
468,28	2827,71
468,64	2827,71
468,99	2750,04
469,35	2796,16
469,71	2757,32
470,06	2788,88
470,42	2779,17
470,77	2822,86
471,13	2784,02
471,48	2813,15
471,84	2774,32
472,20	2779,17
472,55	2801,01
472,91	2849,56
473,26	2796,16
473,62	2835,00
473,97	2740,33
474,33	2791,31
474,68	2839,85
475,04	2924,80
475,39	2813,15
475,75	2822,86
476,10	2786,45
476,46	2801,01
476,81	2890,82
477,17	2854,41
477,52	2805,87
477,88	2750,04
478,23	2825,29
478,59	2868,98
478,94	2725,77
479,30	2793,73
479,65	2808,30
480,01	2822,86
480,36	2835,00
480,72	2796,16
481,07	2844,70
481,42	2764,61
481,78	2762,18
482,13	2910,24
482,49	2803,44
482,84	2740,33
483,20	2776,74
483,55	2728,20
483,90	2737,91
484,26	2835,00
484,61	2798,59
484,96	2837,42
485,32	2851,99
485,67	2851,99
486,03	2837,42
486,38	2774,32
486,73	2842,28
487,09	2791,31
487,44	2791,31
487,79	2779,17
488,15	2849,56
488,50	2825,29
488,85	2781,60
489,21	2859,27
489,56	2813,15
489,91	2781,60
490,27	2788,88
490,62	2839,85
490,97	2762,18
491,33	2820,43
491,68	2815,58
492,03	2885,97
492,39	2786,45
492,74	2757,32
493,09	2849,56
493,44	2832,57
493,80	2769,46
494,15	2769,46
494,50	2847,13
494,85	2781,60
495,21	2796,16
495,56	2842,28
495,91	2808,30
496,26	2745,19
496,62	2801,01
496,97	2818,00
497,32	2781,60
497,67	2769,46
498,03	2791,31
498,38	2844,70
498,73	2818,00
499,08	2791,31
499,43	2803,44
499,79	2752,47
500,14	2861,70
500,49	2798,59
500,84	2859,27
501,19	2839,85
501,54	2728,20
501,90	2762,18
502,25	2813,15
502,60	2839,85
502,95	2786,45
503,30	2813,15
503,65	2781,60
504,00	2801,01
504,36	2767,03
504,71	2788,88
505,06	2796,16
505,41	2830,14
505,76	2771,89
506,11	2813,15
506,46	2759,75
506,81	2798,59
507,16	2839,85
507,52	2733,05
507,87	2805,87
508,22	2813,15
508,57	2769,46
508,92	2796,16
509,27	2815,58
509,62	2818,00
509,97	2835,00
510,32	2735,48
510,67	2822,86
511,02	2837,42
511,37	2818,00
511,72	2822,86
512,07	2849,56
512,42	2839,85
512,77	2784,02
513,12	2774,32
513,47	2830,14
513,82	2830,14
514,17	2791,31
514,52	2791,31
514,87	2796,16
515,22	2820,43
515,57	2815,58
515,92	2864,12
516,27	2820,43
516,62	2847,13
516,97	2801,01
517,32	2856,84
517,67	2808,30
518,02	2752,47
518,37	2793,73
518,72	2757,32
519,07	2716,06
519,42	2730,62
519,77	2801,01
520,12	2781,60
520,46	2779,17
520,81	2757,32
521,16	2750,04
521,51	2776,74
521,86	2786,45
522,21	2837,42
522,56	2851,99
522,91	2779,17
523,26	2813,15
523,60	2788,88
523,95	2798,59
524,30	2796,16
524,65	2793,73
525,00	2791,31
525,35	2788,88
525,70	2769,46
526,04	2764,61
526,39	2815,58
526,74	2757,32
527,09	2822,86
527,44	2832,57
527,78	2757,32
528,13	2837,42
528,48	2754,90
528,83	2810,72
529,18	2747,62
529,52	2730,62
529,87	2779,17
530,22	2820,43
530,57	2805,87
530,92	2832,57
531,26	2803,44
531,61	2798,59
531,96	2771,89
532,31	2793,73
532,65	2742,76
533,00	2776,74
533,35	2793,73
533,70	2893,25
534,04	2757,32
534,39	2825,29
534,74	2779,17
535,08	2752,47
535,43	2750,04
535,78	2871,40
536,13	2798,59
536,47	2793,73
536,82	2835,00
537,17	2784,02
537,51	2830,14
537,86	2793,73
538,21	2796,16
538,55	2822,86
538,90	2767,03
539,25	2835,00
539,59	2893,25
539,94	2808,30
540,29	2888,39
540,63	2754,90
540,98	2808,30
541,32	2822,86
541,67	2759,75
542,02	2801,01
542,36	2776,74
542,71	2813,15
543,05	2747,62
543,40	2881,11
543,75	2839,85
544,09	2764,61
544,44	2849,56
544,78	2842,28
545,13	2854,41
545,48	2917,52
545,82	2820,43
546,17	2951,50
546,51	2801,01
546,86	2818,00
547,20	2907,81
547,55	2912,67
547,89	2842,28
548,24	2830,14
548,58	2866,55
548,93	2805,87
549,28	2851,99
549,62	2839,85
549,97	2859,27
550,31	2851,99
550,66	2822,86
551,00	2820,43
551,34	2776,74
551,69	2801,01
552,03	2825,29
552,38	2767,03
552,72	2810,72
553,07	2818,00
553,41	2796,16
553,76	2905,38
554,10	2876,26
554,45	2878,69
554,79	2881,11
555,14	2745,19
555,48	2881,11
555,82	2759,75
556,17	2805,87
556,51	2878,69
556,86	2825,29
557,20	2868,98
557,54	2871,40
557,89	2769,46
558,23	2767,03
558,58	2750,04
558,92	2771,89
559,26	2767,03
559,61	2774,32
559,95	2788,88
560,29	2808,30
560,64	2893,25
560,98	2720,92
561,33	2898,10
561,67	2788,88
562,01	2842,28
562,36	2774,32
562,70	2793,73
563,04	2786,45
563,39	2784,02
563,73	2742,76
564,07	2776,74
564,41	2796,16
564,76	2793,73
565,10	2737,91
565,44	2815,58
565,79	2784,02
566,13	2774,32
566,47	2771,89
566,81	2866,55
567,16	2793,73
567,50	2733,05
567,84	2767,03
568,18	2810,72
568,53	2837,42
568,87	2830,14
569,21	2815,58
569,55	2822,86
569,90	2776,74
570,24	2832,57
570,58	2839,85
570,92	2769,46
571,27	2796,16
571,61	2720,92
571,95	2859,27
572,29	2844,70
572,63	2769,46
572,97	2769,46
573,32	2818,00
573,66	2781,60
574,00	2774,32
574,34	2745,19
574,68	2730,62
575,02	2759,75
575,37	2689,36
575,71	2815,58
576,05	2820,43
576,39	2754,90
576,73	2774,32
577,07	2813,15
577,41	2813,15
577,76	2801,01
578,10	2786,45
578,44	2825,29
578,78	2878,69
579,12	2801,01
579,46	2752,47
579,80	2847,13
580,14	2798,59
580,48	2839,85
580,82	2825,29
581,16	2771,89
581,51	2832,57
581,85	2774,32
582,19	2801,01
582,53	2803,44
582,87	2801,01
583,21	2854,41
583,55	2820,43
583,89	2733,05
584,23	2791,31
584,57	2786,45
584,91	2827,71
585,25	2776,74
585,59	2762,18
585,93	2820,43
586,27	2866,55
586,61	2881,11
586,95	2813,15
587,29	2820,43
587,63	2791,31
587,97	2788,88
588,31	2815,58
588,65	2791,31
588,99	2776,74
589,33	2820,43
589,67	2847,13
590,01	2818,00
590,34	2796,16
590,68	2793,73
591,02	2854,41
591,36	2818,00
591,70	2832,57
592,04	2803,44
592,38	2820,43
592,72	2832,57
593,06	2851,99
593,40	2781,60
593,74	2805,87
594,07	2835,00
594,41	2873,83
594,75	2888,39
595,09	2796,16
595,43	2774,32
595,77	2784,02
596,11	2827,71
596,44	2873,83
596,78	2745,19
597,12	2733,05
597,46	2776,74
597,80	2842,28
598,14	2851,99
598,47	2825,29
598,81	2835,00
599,15	2788,88
599,49	2810,72
599,83	2801,01
600,17	2847,13
600,50	2779,17
600,84	2750,04
601,18	2762,18
601,52	2781,60
601,85	2803,44
602,19	2813,15
602,53	2818,00
602,87	2801,01
603,20	2835,00
603,54	2825,29
603,88	2830,14
604,22	2769,46
604,55	2762,18
604,89	2837,42
605,23	2847,13
605,57	2776,74
605,90	2779,17
606,24	2771,89
606,58	2803,44
606,91	2774,32
607,25	2793,73
607,59	2818,00
607,92	2791,31
608,26	2820,43
608,60	2849,56
608,94	2791,31
609,27	2764,61
609,61	2805,87
609,94	2762,18
610,28	2825,29
610,62	2849,56
610,95	2854,41
611,29	2808,30
611,63	2776,74
611,96	2784,02
612,30	2830,14
612,64	2876,26
612,97	2881,11
613,31	2837,42
613,64	2868,98
613,98	2839,85
614,32	2832,57
614,65	2825,29
614,99	2784,02
615,32	2776,74
615,66	2825,29
615,99	2888,39
616,33	2750,04
616,67	2825,29
617,00	2793,73
617,34	2759,75
617,67	2810,72
618,01	2881,11
618,34	2754,90
618,68	2854,41
619,01	2813,15
619,35	2820,43
619,68	2839,85
620,02	2796,16
620,35	2788,88
620,69	2801,01
621,02	2703,93
621,36	2844,70
621,69	2822,86
622,03	2813,15
622,36	2786,45
622,70	2830,14
623,03	2798,59
623,37	2747,62
623,70	2718,49
624,04	2847,13
624,37	2796,16
624,70	2876,26
625,04	2774,32
625,37	2798,59
625,71	2764,61
626,04	2793,73
626,38	2866,55
626,71	2776,74
627,04	2822,86
627,38	2810,72
627,71	2791,31
628,05	2798,59
628,38	2803,44
628,71	2786,45
629,05	2796,16
629,38	2767,03
629,71	2856,84
630,05	2796,16
630,38	2881,11
630,72	2779,17
631,05	2745,19
631,38	2779,17
631,72	2856,84
632,05	2767,03
632,38	2803,44
632,72	2728,20
633,05	2793,73
633,38	2818,00
633,71	2730,62
634,05	2742,76
634,38	2837,42
634,71	2771,89
635,05	2774,32
635,38	2803,44
635,71	2718,49
636,04	2784,02
636,38	2805,87
636,71	2801,01
637,04	2844,70
637,38	2759,75
637,71	2820,43
638,04	2788,88
638,37	2801,01
638,70	2822,86
639,04	2779,17
639,37	2791,31
639,70	2851,99
640,03	2776,74
640,37	2810,72
640,70	2774,32
641,03	2776,74
641,36	2815,58
641,69	2808,30
642,03	2791,31
642,36	2767,03
642,69	2764,61
643,02	2735,48
643,35	2769,46
643,68	2781,60
644,02	2754,90
644,35	2752,47
644,68	2737,91
645,01	2788,88
645,34	2786,45
645,67	2801,01
646,00	2767,03
646,33	2798,59
646,67	2798,59
647,00	2847,13
647,33	2805,87
647,66	2720,92
647,99	2779,17
648,32	2876,26
648,65	2803,44
648,98	2813,15
649,31	2774,32
649,64	2769,46
649,97	2764,61
650,31	2815,58
650,64	2825,29
650,97	2776,74
651,30	2808,30
651,63	2791,31
651,96	2745,19
652,29	2754,90
652,62	2822,86
652,95	2745,19
653,28	2815,58
653,61	2854,41
653,94	2830,14
654,27	2737,91
654,60	2835,00
654,93	2779,17
655,26	2876,26
655,59	2805,87
655,92	2716,06
656,25	2764,61
656,58	2822,86
656,91	2842,28
657,24	2788,88
657,57	2868,98
657,90	2728,20
658,22	2771,89
658,55	2825,29
658,88	2784,02
659,21	2820,43
659,54	2784,02
659,87	2786,45
660,20	2818,00
660,53	2820,43
660,86	2820,43
661,19	2835,00
661,52	2788,88
661,85	2750,04
662,17	2810,72
662,50	2825,29
662,83	2769,46
663,16	2803,44
663,49	2861,70
663,82	2810,72
664,15	2798,59
664,47	2842,28
664,80	2835,00
665,13	2820,43
665,46	2801,01
665,79	2793,73
666,12	2849,56
666,44	2788,88
666,77	2810,72
667,10	2781,60
667,43	2752,47
667,76	2757,32
668,08	2745,19
668,41	2767,03
668,74	2742,76
669,07	2868,98
669,40	2784,02
669,72	2747,62
670,05	2740,33
670,38	2786,45
670,71	2781,60
671,03	2810,72
671,36	2735,48
671,69	2779,17
672,02	2793,73
672,34	2820,43
672,67	2786,45
673,00	2810,72
673,32	2808,30
673,65	2801,01
673,98	2805,87
674,31	2740,33
674,63	2723,34
674,96	2784,02
675,29	2805,87
675,61	2813,15
675,94	2861,70
676,27	2805,87
676,59	2810,72
676,92	2813,15
677,25	2849,56
677,57	2830,14
677,90	2754,90
678,23	2820,43
678,55	2791,31
678,88	2742,76
679,20	2835,00
679,53	2747,62
679,86	2786,45
680,18	2776,74
680,51	2820,43
680,83	2822,86
681,16	2784,02
681,49	2769,46
681,81	2759,75
682,14	2791,31
682,46	2737,91
682,79	2844,70
683,11	2837,42
683,44	2788,88
683,77	2815,58
684,09	2769,46
684,42	2793,73
684,74	2847,13
685,07	2827,71
685,39	2798,59
685,72	2788,88
686,04	2728,20
686,37	2745,19
686,69	2803,44
687,02	2754,90
687,34	2837,42
687,67	2793,73
687,99	2878,69
688,32	2723,34
688,64	2733,05
688,97	2803,44
689,29	2786,45
689,62	2786,45
689,94	2815,58
690,27	2810,72
690,59	2786,45
690,91	2837,42
691,24	2779,17
691,56	2754,90
691,89	2805,87
692,21	2808,30
692,54	2910,24
692,86	2847,13
693,18	2786,45
693,51	2803,44
693,83	2793,73
694,16	2820,43
694,48	2754,90
694,80	2827,71
695,13	2767,03
695,45	2839,85
695,78	2767,03
696,10	2699,07
696,42	2774,32
696,75	2803,44
697,07	2849,56
697,39	2793,73
697,72	2769,46
698,04	2835,00
698,36	2791,31
698,69	2849,56
699,01	2796,16
699,33	2720,92
699,66	2750,04
699,98	2796,16
700,30	2815,58
700,62	2779,17
700,95	2861,70
701,27	2716,06
701,59	2856,84
701,92	2851,99
702,24	2793,73
702,56	2786,45
702,88	2737,91
703,21	2798,59
703,53	2728,20
703,85	2898,10
704,17	2842,28
704,50	2759,75
704,82	2842,28
705,14	2919,95
705,46	2805,87
705,78	2830,14
706,11	2788,88
706,43	2791,31
706,75	2801,01
707,07	2720,92
707,39	2776,74
707,72	2827,71
708,04	2830,14
708,36	2801,01
708,68	2740,33
709,00	2788,88
709,32	2759,75
709,65	2835,00
709,97	2849,56
710,29	2851,99
710,61	2750,04
710,93	2813,15
711,25	2813,15
711,57	2805,87
711,90	2786,45
712,22	2740,33
712,54	2776,74
712,86	2747,62
713,18	2813,15
713,50	2861,70
713,82	2779,17
714,14	2827,71
714,46	2793,73
714,78	2742,76
715,10	2810,72
715,42	2851,99
715,75	2788,88
716,07	2762,18
716,39	2820,43
716,71	2776,74
717,03	2801,01
717,35	2803,44
717,67	2776,74
717,99	2747,62
718,31	2856,84
718,63	2776,74
718,95	2810,72
719,27	2803,44
719,59	2808,30
719,91	2769,46
720,23	2803,44
720,55	2839,85
720,87	2786,45
721,19	2803,44
721,51	2740,33
721,83	2791,31
722,15	2810,72
722,47	2769,46
722,78	2801,01
723,10	2769,46
723,42	2844,70
723,74	2708,78
724,06	2759,75
724,38	2767,03
724,70	2847,13
725,02	2745,19
725,34	2784,02
725,66	2808,30
725,98	2822,86
726,30	2745,19
726,61	2776,74
726,93	2771,89
727,25	2827,71
727,57	2762,18
727,89	2767,03
728,21	2769,46
728,53	2771,89
728,84	2822,86
729,16	2796,16
729,48	2818,00
729,80	2808,30
730,12	2791,31
730,44	2825,29
730,75	2793,73
731,07	2779,17
731,39	2798,59
731,71	2747,62
732,03	2822,86
732,34	2839,85
732,66	2798,59
732,98	2730,62
733,30	2788,88
733,62	2776,74
733,93	2796,16
734,25	2851,99
734,57	2735,48
734,89	2774,32
735,20	2818,00
735,52	2818,00
735,84	2791,31
736,16	2873,83
736,47	2781,60
736,79	2793,73
737,11	2813,15
737,42	2689,36
737,74	2745,19
738,06	2771,89
738,38	2805,87
738,69	2820,43
739,01	2784,02
739,33	2781,60
739,64	2893,25
739,96	2851,99
740,28	2830,14
740,59	2835,00
740,91	2854,41
741,23	2832,57
741,54	2801,01
741,86	2771,89
742,17	2774,32
742,49	2793,73
742,81	2747,62
743,12	2757,32
743,44	2801,01
743,76	2776,74
744,07	2820,43
744,39	2754,90
744,70	2779,17
745,02	2747,62
745,34	2779,17
745,65	2767,03
745,97	2767,03
746,28	2793,73
746,60	2813,15
746,91	2847,13
747,23	2730,62
747,55	2808,30
747,86	2781,60
748,18	2805,87
748,49	2793,73
748,81	2813,15
749,12	2740,33
749,44	2825,29
749,75	2832,57
750,07	2762,18
750,38	2815,58
750,70	2856,84
751,01	2784,02
751,33	2747,62
751,64	2757,32
751,96	2832,57
752,27	2793,73
752,59	2825,29
752,90	2711,21
753,22	2803,44
753,53	2781,60
753,84	2767,03
754,16	2813,15
754,47	2793,73
754,79	2839,85
755,10	2776,74
755,42	2793,73
755,73	2805,87
756,04	2776,74
756,36	2801,01
756,67	2750,04
756,99	2820,43
757,30	2818,00
757,61	2784,02
757,93	2747,62
758,24	2808,30
758,55	2767,03
758,87	2701,50
759,18	2733,05
759,50	2818,00
759,81	2793,73
760,12	2779,17
760,44	2764,61
760,75	2805,87
761,06	2847,13
761,38	2796,16
761,69	2764,61
762,00	2820,43
762,32	2885,97
762,63	2774,32
762,94	2788,88
763,25	2805,87
763,57	2854,41
763,88	2764,61
764,19	2752,47
764,51	2793,73
764,82	2784,02
765,13	2788,88
765,44	2859,27
765,76	2786,45
766,07	2703,93
766,38	2805,87
766,69	2881,11
767,01	2810,72
767,32	2832,57
767,63	2703,93
767,94	2779,17
768,25	2820,43
768,57	2830,14
768,88	2830,14
769,19	2796,16
769,50	2818,00
769,81	2859,27
770,13	2786,45
770,44	2801,01
770,75	2774,32
771,06	2784,02
771,37	2820,43
771,68	2779,17
772,00	2771,89
772,31	2728,20
772,62	2791,31
772,93	2762,18
773,24	2803,44
773,55	2868,98
773,86	2759,75
774,17	2771,89
774,49	2757,32
774,80	2752,47
775,11	2796,16
775,42	2847,13
775,73	2733,05
776,04	2822,86
776,35	2771,89
776,66	2798,59
776,97	2827,71
777,28	2820,43
777,59	2796,16
777,90	2810,72
778,21	2856,84
778,52	2803,44
778,83	2767,03
779,15	2822,86
779,46	2791,31
779,77	2779,17
780,08	2781,60
780,39	2750,04
780,70	2752,47
781,01	2805,87
781,32	2822,86
781,63	2771,89
781,94	2716,06
782,25	2747,62
782,56	2759,75
782,86	2810,72
783,17	2781,60
783,48	2830,14
783,79	2716,06
784,10	2827,71
784,41	2805,87
784,72	2839,85
785,03	2820,43
785,34	2820,43
785,65	2832,57
785,96	2764,61
786,27	2747,62
786,58	2786,45
786,89	2757,32
787,19	2781,60
787,50	2820,43
787,81	2793,73
788,12	2832,57
788,43	2788,88
788,74	2849,56
789,05	2849,56
789,36	2781,60
789,66	2825,29
789,97	2754,90
790,28	2791,31
790,59	2815,58
790,90	2723,34
791,21	2745,19
791,52	2757,32
791,82	2742,76
792,13	2861,70
792,44	2786,45
792,75	2767,03
793,06	2735,48
793,36	2839,85
793,67	2878,69
793,98	2813,15
794,29	2754,90
794,59	2762,18
794,90	2728,20
795,21	2771,89
795,52	2737,91
795,82	2786,45
796,13	2820,43
796,44	2716,06
796,75	2767,03
797,05	2847,13
797,36	2808,30
797,67	2728,20
797,98	2796,16
798,28	2837,42
798,59	2788,88
798,90	2827,71
799,20	2750,04
799,51	2813,15
799,82	2779,17
800,12	2822,86
800,43	2745,19
800,74	2750,04
801,04	2786,45
801,35	2779,17
801,66	2762,18
801,96	2815,58
802,27	2793,73
802,58	2740,33
802,88	2788,88
803,19	2762,18
803,50	2769,46
803,80	2830,14
804,11	2861,70
804,41	2779,17
804,72	2747,62
805,03	2769,46
805,33	2825,29
805,64	2864,12
805,94	2818,00
806,25	2754,90
806,56	2730,62
806,86	2832,57
807,17	2769,46
807,47	2808,30
807,78	2791,31
808,08	2803,44
808,39	2771,89
808,69	2730,62
809,00	2822,86
809,30	2684,51
809,61	2786,45
809,91	2776,74
810,22	2730,62
810,52	2810,72
810,83	2767,03
811,13	2740,33
811,44	2754,90
811,74	2793,73
812,05	2825,29
812,35	2847,13
812,66	2759,75
812,96	2791,31
813,27	2776,74
813,57	2774,32
813,88	2784,02
814,18	2808,30
814,49	2718,49
814,79	2774,32
815,09	2742,76
815,40	2781,60
815,70	2788,88
816,01	2798,59
816,31	2767,03
816,61	2752,47
816,92	2820,43
817,22	2803,44
817,53	2827,71
817,83	2837,42
818,13	2767,03
818,44	2810,72
818,74	2747,62
819,04	2793,73
819,35	2793,73
819,65	2822,86
819,95	2757,32
820,26	2784,02
820,56	2835,00
820,86	2747,62
821,17	2820,43
821,47	2779,17
821,77	2713,63
822,08	2754,90
822,38	2851,99
822,68	2791,31
822,99	2735,48
823,29	2742,76
823,59	2820,43
823,89	2801,01
824,20	2742,76
824,50	2810,72
824,80	2771,89
825,10	2791,31
825,41	2844,70
825,71	2820,43
826,01	2776,74
826,31	2820,43
826,62	2801,01
826,92	2798,59
827,22	2801,01
827,52	2759,75
827,82	2815,58
828,13	2805,87
828,43	2832,57
828,73	2757,32
829,03	2822,86
829,33	2769,46
829,64	2750,04
829,94	2844,70
830,24	2818,00
830,54	2815,58
830,84	2750,04
831,14	2720,92
831,45	2798,59
831,75	2759,75
832,05	2784,02
832,35	2759,75
832,65	2764,61
832,95	2793,73
833,25	2740,33
833,55	2835,00
833,85	2847,13
834,16	2752,47
834,46	2767,03
834,76	2842,28
835,06	2774,32
835,36	2808,30
835,66	2742,76
835,96	2706,35
836,26	2737,91
836,56	2791,31
836,86	2730,62
837,16	2854,41
837,46	2689,36
837,76	2769,46
838,06	2728,20
838,36	2818,00
838,66	2813,15
838,96	2759,75
839,26	2764,61
839,56	2750,04
839,86	2788,88
840,16	2713,63
840,46	2764,61
840,76	2801,01
841,06	2769,46
841,36	2774,32
841,66	2757,32
841,96	2728,20
842,26	2776,74
842,56	2837,42
842,86	2767,03
843,16	2808,30
843,46	2822,86
843,76	2798,59
844,06	2745,19
844,36	2779,17
844,66	2730,62
844,95	2757,32
845,25	2784,02
845,55	2873,83
845,85	2793,73
846,15	2784,02
846,45	2788,88
846,75	2825,29
847,05	2764,61
847,35	2742,76
847,64	2771,89
847,94	2847,13
848,24	2764,61
848,54	2786,45
848,84	2752,47
849,14	2815,58
849,43	2730,62
849,73	2747,62
850,03	2784,02
850,33	2786,45
850,63	2745,19
850,92	2793,73
851,22	2788,88
851,52	2791,31
851,82	2813,15
852,12	2805,87
852,41	2771,89
852,71	2818,00
853,01	2796,16
853,31	2771,89
853,60	2798,59
853,90	2791,31
854,20	2813,15
854,50	2716,06
854,79	2737,91
855,09	2754,90
855,39	2752,47
855,69	2742,76
855,98	2776,74
856,28	2803,44
856,58	2781,60
856,87	2844,70
857,17	2791,31
857,47	2856,84
857,76	2854,41
858,06	2805,87
858,36	2779,17
858,65	2815,58
858,95	2788,88
859,25	2774,32
859,54	2847,13
859,84	2730,62
860,14	2759,75
860,43	2803,44
860,73	2835,00
861,03	2716,06
861,32	2745,19
861,62	2730,62
861,91	2805,87
862,21	2764,61
862,51	2762,18
862,80	2796,16
863,10	2769,46
863,39	2798,59
863,69	2805,87
863,98	2762,18
864,28	2740,33
864,58	2813,15
864,87	2876,26
865,17	2847,13
865,46	2815,58
865,76	2774,32
866,05	2815,58
866,35	2818,00
866,64	2754,90
866,94	2764,61
867,23	2815,58
867,53	2784,02
867,82	2779,17
868,12	2776,74
868,41	2742,76
868,71	2750,04
869,00	2791,31
869,30	2827,71
869,59	2745,19
869,89	2733,05
870,18	2818,00
870,48	2781,60
870,77	2837,42
871,06	2762,18
871,36	2742,76
871,65	2818,00
871,95	2723,34
872,24	2784,02
872,54	2805,87
872,83	2844,70
873,12	2798,59
873,42	2752,47
873,71	2796,16
874,01	2779,17
874,30	2832,57
874,59	2750,04
874,89	2805,87
875,18	2788,88
875,47	2851,99
875,77	2781,60
876,06	2764,61
876,35	2779,17
876,65	2769,46
876,94	2747,62
877,23	2713,63
877,53	2771,89
877,82	2818,00
878,11	2798,59
878,41	2730,62
878,70	2776,74
878,99	2835,00
879,29	2793,73
879,58	2803,44
879,87	2793,73
880,16	2769,46
880,46	2740,33
880,75	2815,58
881,04	2767,03
881,34	2805,87
881,63	2725,77
881,92	2784,02
882,21	2774,32
882,50	2813,15
882,80	2784,02
883,09	2752,47
883,38	2791,31
883,67	2771,89
883,97	2703,93
884,26	2873,83
884,55	2810,72
884,84	2791,31
885,13	2728,20
885,43	2786,45
885,72	2793,73
886,01	2781,60
886,30	2810,72
886,59	2735,48
886,88	2784,02
887,17	2791,31
887,47	2815,58
887,76	2747,62
888,05	2742,76
888,34	2830,14
888,63	2830,14
888,92	2830,14
>>>>>End Processed Spectral Data<<<<<
