SpectraSuite Datei
++++++++++++++++++++++++++++++++++++
Datum: Fri Jun 02 11:18:57 CEST 2023
Benutzer: TAM
Dark-Spektrum vorhanden: Nein
Referenz-Spektrum vorhanden: Nein
Zahl der probierten Teilspektren: 1
Spektrometer: FLMS04432
Integrationszeit (usec): 100000 (FLMS04432)
Spektren Durchschnitt berechnet: 1 (FLMS04432)
Boxcar Glättung: 0 (FLMS04432)
Dunkelstromkorrektur: Nein (FLMS04432)
Puls/Lampe aktiviert: Nein (FLMS04432)
Correct for Detector Non-linearity: Nein (FLMS04432)
Streulichtkorrektur: Nein (FLMS04432)
Anzahl Pixel in verarbeitetem Spektrum: 2048
>>>>>Begin Processed Spectral Data<<<<<
188,46	2320,42
188,85	2320,42
189,24	2320,42
189,63	2351,98
190,02	2298,58
190,41	2313,14
190,80	2388,39
191,19	2371,40
191,58	2381,10
191,96	2412,66
192,35	2385,96
192,74	2517,03
193,13	2371,40
193,52	2536,45
193,91	2480,62
194,30	2572,86
194,69	2589,85
195,08	2570,43
195,47	2604,41
195,86	2558,29
196,24	2861,70
196,63	2543,73
197,02	2665,09
197,41	2648,10
197,80	2679,65
198,19	2699,07
198,58	2720,92
198,96	2728,20
199,35	2786,45
199,74	2754,90
200,13	2788,88
200,52	2764,61
200,91	2822,86
201,29	2779,17
201,68	2781,60
202,07	2784,02
202,46	2830,14
202,85	2805,87
203,24	2813,15
203,62	2708,78
204,01	2786,45
204,40	2796,16
204,79	2818,00
205,17	2679,65
205,56	2847,13
205,95	2798,59
206,34	2788,88
206,73	2735,48
207,11	2813,15
207,50	2779,17
207,89	2750,04
208,28	2764,61
208,66	2796,16
209,05	2830,14
209,44	2808,30
209,83	2779,17
210,21	2728,20
210,60	2759,75
210,99	2771,89
211,37	2764,61
211,76	2769,46
212,15	2822,86
212,54	2779,17
212,92	2830,14
213,31	2786,45
213,70	2720,92
214,08	2757,32
214,47	2759,75
214,86	2796,16
215,24	2793,73
215,63	2764,61
216,02	2798,59
216,40	2822,86
216,79	2837,42
217,18	2699,07
217,56	2733,05
217,95	2764,61
218,33	2718,49
218,72	2716,06
219,11	2818,00
219,49	2742,76
219,88	2752,47
220,27	2750,04
220,65	2747,62
221,04	2745,19
221,42	2762,18
221,81	2733,05
222,20	2808,30
222,58	2803,44
222,97	2854,41
223,35	2825,29
223,74	2742,76
224,13	2774,32
224,51	2815,58
224,90	2730,62
225,28	2764,61
225,67	2776,74
226,05	2776,74
226,44	2745,19
226,82	2759,75
227,21	2767,03
227,59	2754,90
227,98	2745,19
228,36	2776,74
228,75	2730,62
229,14	2754,90
229,52	2718,49
229,91	2762,18
230,29	2706,35
230,68	2813,15
231,06	2835,00
231,45	2793,73
231,83	2805,87
232,21	2747,62
232,60	2762,18
232,98	2750,04
233,37	2723,34
233,75	2779,17
234,14	2720,92
234,52	2844,70
234,91	2750,04
235,29	2825,29
235,68	2730,62
236,06	2895,68
236,44	2793,73
236,83	2779,17
237,21	2822,86
237,60	2827,71
237,98	2788,88
238,37	2762,18
238,75	2769,46
239,13	2791,31
239,52	2793,73
239,90	2788,88
240,29	2781,60
240,67	2818,00
241,05	2815,58
241,44	2786,45
241,82	2754,90
242,20	2820,43
242,59	2808,30
242,97	2793,73
243,35	2788,88
243,74	2796,16
244,12	2747,62
244,51	2750,04
244,89	2791,31
245,27	2750,04
245,66	2822,86
246,04	2774,32
246,42	2808,30
246,80	2805,87
247,19	2788,88
247,57	2820,43
247,95	2737,91
248,34	2808,30
248,72	2788,88
249,10	2793,73
249,49	2786,45
249,87	2735,48
250,25	2754,90
250,63	2764,61
251,02	2767,03
251,40	2818,00
251,78	2810,72
252,16	2835,00
252,55	2791,31
252,93	2827,71
253,31	2813,15
253,69	2805,87
254,08	2725,77
254,46	2844,70
254,84	2818,00
255,22	2839,85
255,60	2784,02
255,99	2771,89
256,37	2779,17
256,75	2769,46
257,13	2868,98
257,51	2801,01
257,90	2796,16
258,28	2813,15
258,66	2837,42
259,04	2723,34
259,42	2781,60
259,81	2745,19
260,19	2805,87
260,57	2769,46
260,95	2820,43
261,33	2762,18
261,71	2801,01
262,09	2832,57
262,48	2803,44
262,86	2820,43
263,24	2786,45
263,62	2776,74
264,00	2878,69
264,38	2820,43
264,76	2859,27
265,14	2900,53
265,53	2827,71
265,91	2791,31
266,29	2708,78
266,67	2805,87
267,05	2791,31
267,43	2822,86
267,81	2728,20
268,19	2774,32
268,57	2822,86
268,95	2762,18
269,33	2844,70
269,71	2774,32
270,09	2820,43
270,47	2767,03
270,85	2786,45
271,23	2740,33
271,62	2830,14
272,00	2781,60
272,38	2847,13
272,76	2784,02
273,14	2803,44
273,52	2815,58
273,90	2791,31
274,28	2740,33
274,66	2820,43
275,04	2796,16
275,42	2818,00
275,80	2801,01
276,18	2759,75
276,55	2796,16
276,93	2779,17
277,31	2842,28
277,69	2771,89
278,07	2808,30
278,45	2779,17
278,83	2798,59
279,21	2820,43
279,59	2839,85
279,97	2784,02
280,35	2813,15
280,73	2769,46
281,11	2805,87
281,49	2864,12
281,87	2776,74
282,25	2757,32
282,62	2784,02
283,00	2735,48
283,38	2851,99
283,76	2798,59
284,14	2856,84
284,52	2815,58
284,90	2825,29
285,28	2801,01
285,65	2813,15
286,03	2754,90
286,41	2885,97
286,79	2803,44
287,17	2917,52
287,55	2820,43
287,93	2801,01
288,30	2793,73
288,68	2844,70
289,06	2859,27
289,44	2907,81
289,82	2868,98
290,20	2951,50
290,57	3051,02
290,95	2966,07
291,33	3072,86
291,71	3101,99
292,09	3075,29
292,46	3123,84
292,84	3082,57
293,22	3106,84
293,60	3179,66
293,97	3315,59
294,35	3432,09
294,73	3606,85
295,11	3856,86
295,48	4077,73
295,86	4257,35
296,24	4291,33
296,62	4417,54
296,99	4366,57
297,37	4497,64
297,75	4456,38
298,13	4259,78
298,50	4298,61
298,88	4393,27
299,26	4643,28
299,63	4871,44
300,01	5140,86
300,39	5718,54
300,77	6242,82
301,14	6837,48
301,52	7034,09
301,90	7427,30
302,27	7915,17
302,65	8182,17
303,03	8565,67
303,40	8432,17
303,78	8308,38
304,16	7915,17
304,53	7747,69
304,91	7089,92
305,28	6903,02
305,66	6310,78
306,04	6012,23
306,41	5594,75
306,79	5094,74
307,17	4793,76
307,54	4395,70
307,92	4099,58
308,29	3992,78
308,67	3786,47
309,05	3597,14
309,42	3509,76
309,80	3580,15
310,17	3604,42
310,55	3614,13
310,92	3767,05
311,30	3796,18
311,68	3674,81
312,05	3856,86
312,43	3701,51
312,80	3580,15
313,18	3483,06
313,55	3320,44
313,93	3177,23
314,30	3099,56
314,68	3116,55
315,05	3043,74
315,43	3007,33
315,80	2910,24
316,18	2958,78
316,55	2900,53
316,93	2830,14
317,30	2936,94
317,68	2868,98
318,05	2898,10
318,43	2839,85
318,80	2820,43
319,18	2878,69
319,55	2815,58
319,93	2839,85
320,30	2815,58
320,68	2757,32
321,05	2767,03
321,43	2784,02
321,80	2883,54
322,17	2813,15
322,55	2793,73
322,92	2808,30
323,30	2781,60
323,67	2793,73
324,05	2888,39
324,42	2864,12
324,79	2798,59
325,17	2835,00
325,54	2844,70
325,92	2805,87
326,29	2798,59
326,66	2798,59
327,04	2808,30
327,41	2779,17
327,78	2813,15
328,16	2798,59
328,53	2793,73
328,91	2827,71
329,28	2784,02
329,65	2839,85
330,03	2779,17
330,40	2771,89
330,77	2759,75
331,15	2844,70
331,52	2776,74
331,89	2866,55
332,27	2839,85
332,64	2793,73
333,01	2754,90
333,38	2910,24
333,76	2837,42
334,13	2825,29
334,50	2864,12
334,88	2854,41
335,25	2747,62
335,62	2779,17
335,99	2725,77
336,37	2808,30
336,74	2890,82
337,11	2822,86
337,48	2803,44
337,86	2825,29
338,23	2837,42
338,60	2796,16
338,97	2733,05
339,35	2796,16
339,72	2861,70
340,09	2808,30
340,46	2793,73
340,84	2868,98
341,21	2774,32
341,58	2776,74
341,95	2851,99
342,32	2839,85
342,70	2898,10
343,07	2786,45
343,44	2779,17
343,81	2757,32
344,18	2830,14
344,55	2844,70
344,93	2851,99
345,30	2769,46
345,67	2842,28
346,04	2898,10
346,41	2754,90
346,78	2810,72
347,15	2784,02
347,53	2854,41
347,90	2868,98
348,27	2830,14
348,64	2849,56
349,01	2776,74
349,38	2861,70
349,75	2752,47
350,12	2757,32
350,49	2835,00
350,87	2745,19
351,24	2839,85
351,61	2791,31
351,98	2793,73
352,35	2764,61
352,72	2708,78
353,09	2820,43
353,46	2771,89
353,83	2839,85
354,20	2776,74
354,57	2900,53
354,94	2825,29
355,31	2796,16
355,68	2791,31
356,05	2769,46
356,42	2864,12
356,79	2784,02
357,16	2822,86
357,53	2835,00
357,90	2837,42
358,27	2895,68
358,64	2801,01
359,01	2825,29
359,38	2881,11
359,75	2813,15
360,12	2837,42
360,49	2805,87
360,86	2822,86
361,23	2815,58
361,60	2805,87
361,97	2861,70
362,34	2803,44
362,71	2786,45
363,08	2832,57
363,45	2866,55
363,82	2835,00
364,19	2825,29
364,56	2818,00
364,93	2844,70
365,30	2813,15
365,66	2827,71
366,03	2774,32
366,40	2745,19
366,77	2784,02
367,14	2786,45
367,51	2784,02
367,88	2835,00
368,25	2796,16
368,62	2849,56
368,98	2905,38
369,35	2844,70
369,72	2866,55
370,09	2866,55
370,46	2820,43
370,83	2808,30
371,20	2818,00
371,56	2735,48
371,93	2895,68
372,30	2839,85
372,67	2769,46
373,04	2788,88
373,41	2839,85
373,77	2856,84
374,14	2771,89
374,51	2856,84
374,88	2793,73
375,25	2868,98
375,61	2779,17
375,98	2830,14
376,35	2818,00
376,72	2835,00
377,08	2825,29
377,45	2856,84
377,82	2839,85
378,19	2837,42
378,55	2813,15
378,92	2759,75
379,29	2856,84
379,66	2757,32
380,02	2818,00
380,39	2830,14
380,76	2784,02
381,13	2730,62
381,49	2808,30
381,86	2866,55
382,23	2801,01
382,59	2742,76
382,96	2851,99
383,33	2759,75
383,70	2730,62
384,06	2815,58
384,43	2762,18
384,80	2854,41
385,16	2832,57
385,53	2750,04
385,90	2813,15
386,26	2854,41
386,63	2861,70
387,00	2771,89
387,36	2798,59
387,73	2781,60
388,09	2759,75
388,46	2820,43
388,83	2868,98
389,19	2837,42
389,56	2830,14
389,93	2784,02
390,29	2859,27
390,66	2849,56
391,02	2793,73
391,39	2839,85
391,75	2781,60
392,12	2830,14
392,49	2878,69
392,85	2805,87
393,22	2752,47
393,58	2936,94
393,95	2849,56
394,31	2830,14
394,68	2784,02
395,05	2854,41
395,41	2786,45
395,78	2893,25
396,14	2801,01
396,51	2791,31
396,87	2837,42
397,24	2798,59
397,60	2798,59
397,97	2776,74
398,33	2927,23
398,70	2769,46
399,06	2798,59
399,43	2827,71
399,79	2818,00
400,16	2815,58
400,52	2847,13
400,89	2764,61
401,25	2779,17
401,62	2827,71
401,98	2822,86
402,35	2837,42
402,71	2786,45
403,07	2861,70
403,44	2822,86
403,80	2791,31
404,17	2793,73
404,53	2774,32
404,90	2786,45
405,26	2868,98
405,62	2810,72
405,99	2796,16
406,35	2810,72
406,72	2808,30
407,08	2854,41
407,44	2849,56
407,81	2808,30
408,17	2844,70
408,54	2885,97
408,90	2813,15
409,26	2835,00
409,63	2798,59
409,99	2866,55
410,35	2847,13
410,72	2854,41
411,08	2895,68
411,44	2871,40
411,81	2774,32
412,17	2808,30
412,53	2750,04
412,90	2890,82
413,26	2825,29
413,62	2902,96
413,99	2827,71
414,35	2798,59
414,71	2771,89
415,08	2944,22
415,44	2856,84
415,80	2876,26
416,16	2759,75
416,53	2781,60
416,89	2813,15
417,25	2788,88
417,61	2866,55
417,98	2784,02
418,34	2757,32
418,70	2854,41
419,06	2847,13
419,43	2793,73
419,79	2830,14
420,15	2905,38
420,51	2803,44
420,88	2779,17
421,24	2805,87
421,60	2796,16
421,96	2832,57
422,32	2796,16
422,69	2793,73
423,05	2856,84
423,41	2798,59
423,77	2810,72
424,13	2808,30
424,50	2830,14
424,86	2813,15
425,22	2788,88
425,58	2791,31
425,94	2876,26
426,30	2796,16
426,67	2767,03
427,03	2803,44
427,39	2801,01
427,75	2803,44
428,11	2837,42
428,47	2740,33
428,83	2791,31
429,19	2805,87
429,56	2791,31
429,92	2754,90
430,28	2798,59
430,64	2810,72
431,00	2803,44
431,36	2864,12
431,72	2747,62
432,08	2779,17
432,44	2733,05
432,80	2767,03
433,16	2808,30
433,52	2788,88
433,89	2764,61
434,25	2854,41
434,61	2813,15
434,97	2803,44
435,33	2784,02
435,69	2781,60
436,05	2764,61
436,41	2859,27
436,77	2883,54
437,13	2893,25
437,49	2868,98
437,85	2844,70
438,21	2825,29
438,57	2885,97
438,93	2808,30
439,29	2815,58
439,65	2813,15
440,01	2822,86
440,37	2784,02
440,73	2856,84
441,09	2847,13
441,45	2830,14
441,81	2771,89
442,16	2786,45
442,52	2832,57
442,88	2818,00
443,24	2839,85
443,60	2864,12
443,96	2856,84
444,32	2796,16
444,68	2832,57
445,04	2781,60
445,40	2808,30
445,76	2847,13
446,12	2837,42
446,48	2868,98
446,83	2776,74
447,19	2876,26
447,55	2910,24
447,91	2764,61
448,27	2849,56
448,63	2832,57
448,99	2842,28
449,34	2844,70
449,70	2810,72
450,06	2767,03
450,42	2796,16
450,78	2830,14
451,14	2803,44
451,50	2849,56
451,85	2818,00
452,21	2803,44
452,57	2868,98
452,93	2859,27
453,29	2825,29
453,64	2745,19
454,00	2898,10
454,36	2868,98
454,72	2815,58
455,08	2798,59
455,43	2796,16
455,79	2868,98
456,15	2868,98
456,51	2798,59
456,86	2847,13
457,22	2793,73
457,58	2728,20
457,94	2801,01
458,29	2779,17
458,65	2827,71
459,01	2820,43
459,37	2881,11
459,72	2791,31
460,08	2798,59
460,44	2769,46
460,79	2771,89
461,15	2849,56
461,51	2776,74
461,86	2847,13
462,22	2784,02
462,58	2801,01
462,94	2849,56
463,29	2716,06
463,65	2813,15
464,01	2820,43
464,36	2776,74
464,72	2820,43
465,08	2815,58
465,43	2786,45
465,79	2781,60
466,14	2842,28
466,50	2757,32
466,86	2798,59
467,21	2832,57
467,57	2839,85
467,93	2791,31
468,28	2861,70
468,64	2837,42
468,99	2927,23
469,35	2835,00
469,71	2762,18
470,06	2796,16
470,42	2842,28
470,77	2878,69
471,13	2885,97
471,48	2873,83
471,84	2827,71
472,20	2830,14
472,55	2796,16
472,91	2842,28
473,26	2837,42
473,62	2866,55
473,97	2810,72
474,33	2876,26
474,68	2810,72
475,04	2779,17
475,39	2793,73
475,75	2956,36
476,10	2808,30
476,46	2810,72
476,81	2856,84
477,17	2878,69
477,52	2917,52
477,88	2832,57
478,23	2820,43
478,59	2808,30
478,94	2767,03
479,30	2859,27
479,65	2810,72
480,01	2907,81
480,36	2818,00
480,72	2822,86
481,07	2830,14
481,42	2883,54
481,78	2825,29
482,13	2818,00
482,49	2781,60
482,84	2820,43
483,20	2978,20
483,55	2711,21
483,90	2798,59
484,26	2815,58
484,61	2781,60
484,96	2762,18
485,32	2847,13
485,67	2793,73
486,03	2885,97
486,38	2868,98
486,73	2830,14
487,09	2837,42
487,44	2878,69
487,79	2900,53
488,15	2849,56
488,50	2873,83
488,85	2818,00
489,21	2932,08
489,56	2830,14
489,91	2927,23
490,27	2861,70
490,62	2890,82
490,97	2851,99
491,33	2820,43
491,68	2859,27
492,03	2936,94
492,39	2801,01
492,74	2849,56
493,09	2825,29
493,44	2883,54
493,80	2810,72
494,15	2859,27
494,50	2902,96
494,85	2837,42
495,21	2788,88
495,56	2796,16
495,91	2791,31
496,26	2832,57
496,62	2900,53
496,97	2832,57
497,32	2958,78
497,67	2810,72
498,03	2907,81
498,38	2815,58
498,73	2805,87
499,08	2805,87
499,43	2893,25
499,79	2835,00
500,14	2808,30
500,49	2779,17
500,84	2793,73
501,19	2871,40
501,54	2808,30
501,90	2842,28
502,25	2837,42
502,60	2810,72
502,95	2791,31
503,30	2827,71
503,65	2888,39
504,00	2764,61
504,36	2820,43
504,71	2815,58
505,06	2837,42
505,41	2757,32
505,76	2805,87
506,11	2849,56
506,46	2803,44
506,81	2851,99
507,16	2856,84
507,52	2740,33
507,87	2786,45
508,22	2776,74
508,57	2849,56
508,92	2822,86
509,27	2818,00
509,62	2847,13
509,97	2842,28
510,32	2878,69
510,67	2844,70
511,02	2759,75
511,37	2866,55
511,72	2864,12
512,07	2878,69
512,42	2851,99
512,77	2861,70
513,12	2851,99
513,47	2885,97
513,82	2752,47
514,17	2849,56
514,52	2820,43
514,87	2801,01
515,22	2813,15
515,57	2888,39
515,92	2805,87
516,27	2801,01
516,62	2859,27
516,97	2873,83
517,32	2771,89
517,67	2856,84
518,02	2820,43
518,37	2844,70
518,72	2842,28
519,07	2849,56
519,42	2866,55
519,77	2868,98
520,12	2803,44
520,46	2839,85
520,81	2835,00
521,16	2803,44
521,51	2893,25
521,86	2825,29
522,21	2771,89
522,56	2818,00
522,91	2835,00
523,26	2837,42
523,60	2871,40
523,95	2854,41
524,30	2924,80
524,65	2788,88
525,00	2798,59
525,35	2801,01
525,70	2842,28
526,04	2842,28
526,39	2890,82
526,74	2818,00
527,09	2805,87
527,44	2854,41
527,78	2883,54
528,13	2810,72
528,48	2832,57
528,83	2818,00
529,18	2842,28
529,52	2856,84
529,87	2825,29
530,22	2873,83
530,57	2856,84
530,92	2859,27
531,26	2832,57
531,61	2837,42
531,96	2769,46
532,31	2900,53
532,65	2835,00
533,00	2878,69
533,35	2910,24
533,70	2822,86
534,04	2883,54
534,39	2929,66
534,74	2830,14
535,08	2859,27
535,43	2854,41
535,78	2881,11
536,13	2878,69
536,47	2864,12
536,82	2844,70
537,17	2832,57
537,51	2786,45
537,86	2830,14
538,21	2837,42
538,55	2939,37
538,90	2927,23
539,25	2856,84
539,59	2868,98
539,94	2847,13
540,29	2961,21
540,63	2868,98
540,98	2856,84
541,32	2946,65
541,67	2978,20
542,02	3012,18
542,36	2990,34
542,71	2939,37
543,05	2995,19
543,40	3000,05
543,75	3041,31
544,09	3031,60
544,44	3043,74
544,78	3009,76
545,13	3021,89
545,48	2968,49
545,82	3007,33
546,17	3014,61
546,51	3157,82
546,86	3118,98
547,20	3116,55
547,55	3160,24
547,89	3068,01
548,24	3099,56
548,58	3118,98
548,93	3065,58
549,28	3155,39
549,62	3070,44
549,97	3123,84
550,31	3128,69
550,66	3140,83
551,00	3148,11
551,34	3152,96
551,69	3169,95
552,03	3240,34
552,38	3145,68
552,72	3196,65
553,07	3165,10
553,41	3160,24
553,76	3354,42
554,10	3230,63
554,45	3308,30
554,79	3250,05
555,14	3325,29
555,48	3310,73
555,82	3427,24
556,17	3500,05
556,51	3432,09
556,86	3631,12
557,20	3691,80
557,54	3740,35
557,89	3728,21
558,23	3791,32
558,58	3842,29
558,92	3890,84
559,26	3953,94
559,61	3978,22
559,95	4024,33
560,29	4218,51
560,64	4228,22
560,98	4288,90
561,33	4305,89
561,67	4480,65
562,01	4543,76
562,36	4621,43
562,70	4728,23
563,04	4742,79
563,39	4849,59
563,73	4866,58
564,07	5007,36
564,41	5167,56
564,76	5315,62
565,10	5296,20
565,44	5507,37
565,79	5801,06
566,13	5890,87
566,47	5936,99
566,81	5995,24
567,16	6381,17
567,50	6417,58
567,84	6451,56
568,18	6747,68
568,53	6873,89
568,87	6895,74
569,21	7138,46
569,55	7529,24
569,90	7580,22
570,24	7725,85
570,58	7939,44
570,92	8201,58
571,27	8252,56
571,61	8543,82
571,95	8839,94
572,29	9131,21
572,63	9446,75
572,97	9856,95
573,32	10041,42
573,66	10097,24
574,00	10568,13
574,34	11080,27
574,68	11308,43
575,02	11696,78
575,37	11973,49
575,71	12262,33
576,05	12468,64
576,39	12791,46
576,73	13427,39
577,07	13890,99
577,41	14570,62
577,76	15133,73
578,10	15126,45
578,44	15750,24
578,78	16267,24
579,12	17043,95
579,46	17204,15
579,80	17910,47
580,14	18342,52
580,48	18723,59
580,82	19043,99
581,16	19682,34
581,51	19830,41
581,85	20711,49
582,19	21228,49
582,53	22340,15
582,87	22740,64
583,21	23451,82
583,55	23852,31
583,89	25102,33
584,23	25604,77
584,57	25842,64
584,91	26311,09
585,25	27820,82
585,59	28053,83
585,93	28415,49
586,27	28796,56
586,61	29638,81
586,95	29854,83
587,29	30447,08
587,63	31073,30
587,97	31765,06
588,31	32078,17
588,65	32740,80
588,99	33265,08
589,33	34121,89
589,67	35364,63
590,01	36221,44
590,34	36536,98
590,68	36672,90
591,02	37655,93
591,36	38189,91
591,70	38947,21
592,04	39274,88
592,38	39852,56
592,72	40655,97
593,06	41233,65
593,40	41529,77
593,74	41124,43
594,07	42020,07
594,41	42277,36
594,75	43333,20
595,09	43204,56
595,43	44675,45
595,77	44177,87
596,11	44141,46
596,44	43299,22
596,78	43600,19
597,12	43733,69
597,46	44571,08
597,80	43753,11
598,14	43811,36
598,47	44913,32
598,81	44976,43
599,15	45335,66
599,49	44782,25
599,83	44660,89
600,17	44915,75
600,50	44515,26
600,84	43990,98
601,18	43893,89
601,52	43818,64
601,85	43973,98
602,19	42813,77
602,53	41148,70
602,87	40129,26
603,20	39556,44
603,54	39774,89
603,88	40262,76
604,22	39901,11
604,55	39012,74
604,89	38896,24
605,23	38524,87
605,57	37197,18
605,90	36675,33
606,24	35527,25
606,58	34585,49
606,91	34153,44
607,25	33629,16
607,59	32908,28
607,92	32192,25
608,26	31410,68
608,60	30485,91
608,94	30087,85
609,27	29223,76
609,61	29568,42
609,94	30129,11
610,28	28993,17
610,62	28891,23
610,95	28920,35
611,29	28379,08
611,63	28250,44
611,96	28551,42
612,30	28340,25
612,64	28082,96
612,97	27973,74
613,31	28248,01
613,64	28233,45
613,98	28828,12
614,32	29553,86
614,65	29998,04
614,99	30112,12
615,32	30216,49
615,66	31677,68
615,99	32027,20
616,33	32898,57
616,67	34466,56
617,00	34134,03
617,34	35136,47
617,67	36466,59
618,01	36369,50
618,34	37988,46
618,68	38243,31
619,01	40168,10
619,35	41760,36
619,68	41304,04
620,02	41583,17
620,35	41716,67
620,69	42357,46
621,02	42639,01
621,36	43653,59
621,69	42978,82
622,03	42947,27
622,36	42976,40
622,70	43049,21
623,03	43721,55
623,37	44592,93
623,70	43423,01
624,04	43122,03
624,37	42847,75
624,70	42561,34
625,04	41206,95
625,37	39238,47
625,71	38461,76
626,04	36837,95
626,38	35485,99
626,71	34308,79
627,04	32893,72
627,38	31621,85
627,71	30172,80
628,05	28648,50
628,38	27150,91
628,71	26250,41
629,05	25206,70
629,38	24155,72
629,71	22286,75
630,05	21277,03
630,38	20616,83
630,72	19735,74
631,05	19104,67
631,38	18442,03
631,72	18097,37
632,05	18126,50
632,38	17859,50
632,72	18063,39
633,05	18126,50
633,38	18342,52
633,71	18473,59
634,05	18039,12
634,38	17844,94
634,71	18187,18
635,05	17808,53
635,38	17257,55
635,71	17473,57
636,04	17051,24
636,38	16823,08
636,71	15793,94
637,04	15553,64
637,38	14888,58
637,71	13997,79
638,04	13184,67
638,37	12670,10
638,70	11682,22
639,04	10898,23
639,37	10247,73
639,70	9517,14
640,03	8599,65
640,37	8051,10
640,70	7529,24
641,03	7000,11
641,36	6546,22
641,69	6369,03
642,03	6133,59
642,36	5776,79
642,69	5822,91
643,02	5619,02
643,35	5555,91
643,68	5427,27
644,02	5419,99
644,35	5398,14
644,68	5330,18
645,01	5186,97
645,34	5031,63
645,67	4648,13
646,00	4706,38
646,33	4385,99
646,67	4298,61
647,00	4080,16
647,33	3835,01
647,66	3801,03
647,99	3626,27
648,32	3635,98
648,65	3478,21
648,98	3483,06
649,31	3402,97
649,64	3495,20
649,97	3432,09
650,31	3449,08
650,64	3514,62
650,97	3538,89
651,30	3376,27
651,63	3417,53
651,96	3410,25
652,29	3274,32
652,62	3301,02
652,95	3237,91
653,28	3182,09
653,61	3133,54
653,94	3089,85
654,27	3055,87
654,60	3131,12
654,93	3077,72
655,26	2975,77
655,59	2958,78
655,92	3024,32
656,25	2970,92
656,58	3051,02
656,91	3029,17
657,24	3058,30
657,57	3014,61
657,90	3051,02
658,22	2983,06
658,55	2978,20
658,88	2973,35
659,21	2975,77
659,54	3017,04
659,87	2973,35
660,20	2975,77
660,53	2949,08
660,86	2927,23
661,19	2946,65
661,52	2934,51
661,85	2970,92
662,17	2844,70
662,50	2941,79
662,83	2864,12
663,16	2881,11
663,49	2900,53
663,82	2949,08
664,15	2929,66
664,47	2895,68
664,80	2898,10
665,13	2902,96
665,46	2883,54
665,79	2922,38
666,12	2983,06
666,44	2956,36
666,77	2934,51
667,10	2876,26
667,43	2934,51
667,76	2924,80
668,08	2898,10
668,41	2924,80
668,74	2881,11
669,07	2958,78
669,40	2919,95
669,72	2873,83
670,05	2837,42
670,38	2849,56
670,71	2878,69
671,03	2849,56
671,36	2905,38
671,69	2881,11
672,02	2922,38
672,34	2868,98
672,67	2912,67
673,00	2958,78
673,32	2883,54
673,65	2900,53
673,98	2815,58
674,31	2895,68
674,63	2878,69
674,96	2827,71
675,29	2830,14
675,61	2934,51
675,94	2881,11
676,27	2893,25
676,59	2803,44
676,92	2917,52
677,25	2832,57
677,57	2864,12
677,90	2871,40
678,23	2888,39
678,55	2849,56
678,88	2815,58
679,20	2822,86
679,53	2849,56
679,86	2888,39
680,18	2830,14
680,51	2832,57
680,83	2888,39
681,16	2810,72
681,49	2873,83
681,81	2835,00
682,14	2805,87
682,46	2839,85
682,79	2868,98
683,11	2881,11
683,44	2871,40
683,77	2851,99
684,09	2805,87
684,42	2888,39
684,74	2820,43
685,07	2844,70
685,39	2805,87
685,72	2832,57
686,04	2810,72
686,37	2854,41
686,69	2847,13
687,02	2919,95
687,34	2796,16
687,67	2854,41
687,99	2837,42
688,32	2856,84
688,64	2723,34
688,97	2851,99
689,29	2822,86
689,62	2784,02
689,94	2832,57
690,27	2839,85
690,59	2728,20
690,91	2844,70
691,24	2830,14
691,56	2883,54
691,89	2854,41
692,21	2808,30
692,54	2900,53
692,86	2815,58
693,18	2861,70
693,51	2847,13
693,83	2784,02
694,16	2718,49
694,48	2798,59
694,80	2737,91
695,13	2861,70
695,45	2854,41
695,78	2842,28
696,10	2813,15
696,42	2813,15
696,75	2757,32
697,07	2798,59
697,39	2776,74
697,72	2801,01
698,04	2888,39
698,36	2818,00
698,69	2798,59
699,01	2769,46
699,33	2868,98
699,66	2820,43
699,98	2769,46
700,30	2803,44
700,62	2822,86
700,95	2801,01
701,27	2839,85
701,59	2788,88
701,92	2878,69
702,24	2762,18
702,56	2757,32
702,88	2762,18
703,21	2808,30
703,53	2801,01
703,85	2762,18
704,17	2803,44
704,50	2801,01
704,82	2784,02
705,14	2956,36
705,46	2815,58
705,78	2801,01
706,11	2781,60
706,43	2791,31
706,75	2820,43
707,07	2847,13
707,39	2805,87
707,72	2796,16
708,04	2752,47
708,36	2825,29
708,68	2822,86
709,00	2827,71
709,32	2779,17
709,65	2825,29
709,97	2876,26
710,29	2859,27
710,61	2774,32
710,93	2730,62
711,25	2784,02
711,57	2827,71
711,90	2815,58
712,22	2854,41
712,54	2851,99
712,86	2902,96
713,18	2818,00
713,50	2842,28
713,82	2837,42
714,14	2762,18
714,46	2774,32
714,78	2793,73
715,10	2791,31
715,42	2788,88
715,75	2762,18
716,07	2752,47
716,39	2757,32
716,71	2830,14
717,03	2827,71
717,35	2771,89
717,67	2791,31
717,99	2847,13
718,31	2815,58
718,63	2822,86
718,95	2796,16
719,27	2820,43
719,59	2803,44
719,91	2788,88
720,23	2805,87
720,55	2769,46
720,87	2835,00
721,19	2762,18
721,51	2808,30
721,83	2842,28
722,15	2847,13
722,47	2803,44
722,78	2747,62
723,10	2779,17
723,42	2815,58
723,74	2827,71
724,06	2791,31
724,38	2793,73
724,70	2915,09
725,02	2759,75
725,34	2803,44
725,66	2737,91
725,98	2815,58
726,30	2813,15
726,61	2769,46
726,93	2815,58
727,25	2851,99
727,57	2803,44
727,89	2786,45
728,21	2745,19
728,53	2788,88
728,84	2791,31
729,16	2839,85
729,48	2890,82
729,80	2820,43
730,12	2837,42
730,44	2771,89
730,75	2776,74
731,07	2820,43
731,39	2820,43
731,71	2818,00
732,03	2771,89
732,34	2847,13
732,66	2815,58
732,98	2854,41
733,30	2788,88
733,62	2786,45
733,93	2818,00
734,25	2769,46
734,57	2803,44
734,89	2798,59
735,20	2798,59
735,52	2774,32
735,84	2813,15
736,16	2767,03
736,47	2832,57
736,79	2769,46
737,11	2742,76
737,42	2844,70
737,74	2764,61
738,06	2820,43
738,38	2866,55
738,69	2776,74
739,01	2769,46
739,33	2752,47
739,64	2786,45
739,96	2832,57
740,28	2788,88
740,59	2808,30
740,91	2737,91
741,23	2808,30
741,54	2791,31
741,86	2798,59
742,17	2827,71
742,49	2827,71
742,81	2764,61
743,12	2776,74
743,44	2837,42
743,76	2803,44
744,07	2774,32
744,39	2839,85
744,70	2832,57
745,02	2808,30
745,34	2786,45
745,65	2781,60
745,97	2752,47
746,28	2849,56
746,60	2818,00
746,91	2774,32
747,23	2868,98
747,55	2815,58
747,86	2810,72
748,18	2779,17
748,49	2781,60
748,81	2835,00
749,12	2769,46
749,44	2791,31
749,75	2716,06
750,07	2805,87
750,38	2798,59
750,70	2788,88
751,01	2830,14
751,33	2781,60
751,64	2740,33
751,96	2822,86
752,27	2745,19
752,59	2757,32
752,90	2771,89
753,22	2803,44
753,53	2830,14
753,84	2815,58
754,16	2847,13
754,47	2825,29
754,79	2815,58
755,10	2801,01
755,42	2813,15
755,73	2754,90
756,04	2847,13
756,36	2769,46
756,67	2791,31
756,99	2835,00
757,30	2820,43
757,61	2774,32
757,93	2754,90
758,24	2781,60
758,55	2847,13
758,87	2835,00
759,18	2737,91
759,50	2815,58
759,81	2815,58
760,12	2837,42
760,44	2842,28
760,75	2842,28
761,06	2813,15
761,38	2764,61
761,69	2730,62
762,00	2849,56
762,32	2703,93
762,63	2801,01
762,94	2742,76
763,25	2784,02
763,57	2815,58
763,88	2815,58
764,19	2839,85
764,51	2864,12
764,82	2791,31
765,13	2818,00
765,44	2842,28
765,76	2752,47
766,07	2745,19
766,38	2825,29
766,69	2856,84
767,01	2854,41
767,32	2762,18
767,63	2830,14
767,94	2774,32
768,25	2808,30
768,57	2813,15
768,88	2786,45
769,19	2805,87
769,50	2810,72
769,81	2769,46
770,13	2835,00
770,44	2803,44
770,75	2822,86
771,06	2844,70
771,37	2759,75
771,68	2754,90
772,00	2752,47
772,31	2839,85
772,62	2798,59
772,93	2793,73
773,24	2820,43
773,55	2762,18
773,86	2771,89
774,17	2832,57
774,49	2868,98
774,80	2820,43
775,11	2810,72
775,42	2893,25
775,73	2791,31
776,04	2815,58
776,35	2825,29
776,66	2844,70
776,97	2779,17
777,28	2805,87
777,59	2813,15
777,90	2788,88
778,21	2784,02
778,52	2769,46
778,83	2822,86
779,15	2839,85
779,46	2784,02
779,77	2835,00
780,08	2740,33
780,39	2820,43
780,70	2844,70
781,01	2796,16
781,32	2798,59
781,63	2798,59
781,94	2844,70
782,25	2725,77
782,56	2750,04
782,86	2822,86
783,17	2711,21
783,48	2822,86
783,79	2737,91
784,10	2788,88
784,41	2839,85
784,72	2798,59
785,03	2878,69
785,34	2774,32
785,65	2735,48
785,96	2796,16
786,27	2774,32
786,58	2762,18
786,89	2801,01
787,19	2757,32
787,50	2818,00
787,81	2873,83
788,12	2820,43
788,43	2747,62
788,74	2788,88
789,05	2754,90
789,36	2818,00
789,66	2810,72
789,97	2774,32
790,28	2793,73
790,59	2791,31
790,90	2866,55
791,21	2728,20
791,52	2776,74
791,82	2762,18
792,13	2786,45
792,44	2842,28
792,75	2735,48
793,06	2808,30
793,36	2805,87
793,67	2764,61
793,98	2781,60
794,29	2830,14
794,59	2754,90
794,90	2793,73
795,21	2747,62
795,52	2835,00
795,82	2844,70
796,13	2786,45
796,44	2801,01
796,75	2837,42
797,05	2822,86
797,36	2740,33
797,67	2832,57
797,98	2762,18
798,28	2822,86
798,59	2898,10
798,90	2798,59
799,20	2868,98
799,51	2864,12
799,82	2815,58
800,12	2868,98
800,43	2750,04
800,74	2839,85
801,04	2793,73
801,35	2808,30
801,66	2844,70
801,96	2764,61
802,27	2762,18
802,58	2723,34
802,88	2788,88
803,19	2774,32
803,50	2776,74
803,80	2762,18
804,11	2752,47
804,41	2793,73
804,72	2757,32
805,03	2774,32
805,33	2776,74
805,64	2801,01
805,94	2718,49
806,25	2890,82
806,56	2815,58
806,86	2769,46
807,17	2835,00
807,47	2764,61
807,78	2747,62
808,08	2788,88
808,39	2813,15
808,69	2818,00
809,00	2830,14
809,30	2764,61
809,61	2851,99
809,91	2757,32
810,22	2832,57
810,52	2771,89
810,83	2786,45
811,13	2752,47
811,44	2813,15
811,74	2805,87
812,05	2791,31
812,35	2803,44
812,66	2839,85
812,96	2781,60
813,27	2754,90
813,57	2728,20
813,88	2733,05
814,18	2781,60
814,49	2873,83
814,79	2718,49
815,09	2769,46
815,40	2825,29
815,70	2791,31
816,01	2798,59
816,31	2774,32
816,61	2881,11
816,92	2808,30
817,22	2767,03
817,53	2788,88
817,83	2835,00
818,13	2786,45
818,44	2798,59
818,74	2730,62
819,04	2798,59
819,35	2803,44
819,65	2818,00
819,95	2759,75
820,26	2735,48
820,56	2788,88
820,86	2835,00
821,17	2759,75
821,47	2745,19
821,77	2762,18
822,08	2788,88
822,38	2754,90
822,68	2788,88
822,99	2791,31
823,29	2786,45
823,59	2720,92
823,89	2742,76
824,20	2793,73
824,50	2776,74
824,80	2808,30
825,10	2808,30
825,41	2776,74
825,71	2757,32
826,01	2842,28
826,31	2711,21
826,62	2827,71
826,92	2691,79
827,22	2827,71
827,52	2796,16
827,82	2754,90
828,13	2784,02
828,43	2725,77
828,73	2798,59
829,03	2808,30
829,33	2801,01
829,64	2849,56
829,94	2694,22
830,24	2769,46
830,54	2837,42
830,84	2859,27
831,14	2835,00
831,45	2752,47
831,75	2793,73
832,05	2818,00
832,35	2815,58
832,65	2803,44
832,95	2825,29
833,25	2757,32
833,55	2745,19
833,85	2750,04
834,16	2776,74
834,46	2803,44
834,76	2774,32
835,06	2733,05
835,36	2851,99
835,66	2784,02
835,96	2757,32
836,26	2781,60
836,56	2781,60
836,86	2820,43
837,16	2771,89
837,46	2730,62
837,76	2737,91
838,06	2752,47
838,36	2796,16
838,66	2747,62
838,96	2725,77
839,26	2876,26
839,56	2815,58
839,86	2769,46
840,16	2808,30
840,46	2786,45
840,76	2827,71
841,06	2818,00
841,36	2784,02
841,66	2784,02
841,96	2769,46
842,26	2788,88
842,56	2851,99
842,86	2835,00
843,16	2805,87
843,46	2793,73
843,76	2759,75
844,06	2781,60
844,36	2754,90
844,66	2895,68
844,95	2805,87
845,25	2808,30
845,55	2805,87
845,85	2854,41
846,15	2759,75
846,45	2851,99
846,75	2847,13
847,05	2808,30
847,35	2798,59
847,64	2759,75
847,94	2781,60
848,24	2784,02
848,54	2837,42
848,84	2764,61
849,14	2779,17
849,43	2737,91
849,73	2796,16
850,03	2808,30
850,33	2747,62
850,63	2754,90
850,92	2866,55
851,22	2837,42
851,52	2803,44
851,82	2725,77
852,12	2767,03
852,41	2827,71
852,71	2798,59
853,01	2723,34
853,31	2854,41
853,60	2759,75
853,90	2793,73
854,20	2788,88
854,50	2810,72
854,79	2735,48
855,09	2750,04
855,39	2873,83
855,69	2803,44
855,98	2835,00
856,28	2849,56
856,58	2759,75
856,87	2769,46
857,17	2733,05
857,47	2750,04
857,76	2854,41
858,06	2788,88
858,36	2822,86
858,65	2776,74
858,95	2832,57
859,25	2822,86
859,54	2793,73
859,84	2718,49
860,14	2759,75
860,43	2805,87
860,73	2767,03
861,03	2781,60
861,32	2769,46
861,62	2798,59
861,91	2832,57
862,21	2769,46
862,51	2844,70
862,80	2725,77
863,10	2706,35
863,39	2796,16
863,69	2720,92
863,98	2769,46
864,28	2835,00
864,58	2791,31
864,87	2754,90
865,17	2827,71
865,46	2890,82
865,76	2730,62
866,05	2771,89
866,35	2810,72
866,64	2832,57
866,94	2888,39
867,23	2818,00
867,53	2752,47
867,82	2805,87
868,12	2796,16
868,41	2854,41
868,71	2808,30
869,00	2757,32
869,30	2769,46
869,59	2745,19
869,89	2740,33
870,18	2832,57
870,48	2784,02
870,77	2808,30
871,06	2762,18
871,36	2803,44
871,65	2737,91
871,95	2718,49
872,24	2803,44
872,54	2781,60
872,83	2737,91
873,12	2793,73
873,42	2750,04
873,71	2723,34
874,01	2757,32
874,30	2774,32
874,59	2767,03
874,89	2735,48
875,18	2864,12
875,47	2788,88
875,77	2815,58
876,06	2832,57
876,35	2757,32
876,65	2822,86
876,94	2827,71
877,23	2818,00
877,53	2747,62
877,82	2808,30
878,11	2757,32
878,41	2745,19
878,70	2788,88
878,99	2910,24
879,29	2818,00
879,58	2750,04
879,87	2859,27
880,16	2764,61
880,46	2723,34
880,75	2813,15
881,04	2822,86
881,34	2791,31
881,63	2801,01
881,92	2747,62
882,21	2810,72
882,50	2762,18
882,80	2873,83
883,09	2752,47
883,38	2745,19
883,67	2786,45
883,97	2742,76
884,26	2682,08
884,55	2805,87
884,84	2801,01
885,13	2759,75
885,43	2791,31
885,72	2822,86
886,01	2740,33
886,30	2679,65
886,59	2784,02
886,88	2801,01
887,17	2815,58
887,47	2808,30
887,76	2798,59
888,05	2767,03
888,34	2849,56
888,63	2849,56
888,92	2849,56
>>>>>End Processed Spectral Data<<<<<
