SpectraSuite Data File
++++++++++++++++++++++++++++++++++++
Date: Wed Aug 30 16:23:59 CEST 2023
User: TAMINATOR
Dark Spectrum Present: Yes
Reference Spectrum Present: No
Number of Sampled Component Spectra: 1
Spectrometers: FLMS04432
Integration Time (usec): 600000 (FLMS04432)
Spectra Averaged: 1 (FLMS04432)
Boxcar Smoothing: 0 (FLMS04432)
Correct for Electrical Dark: No (FLMS04432)
Strobe/Lamp Enabled: No (FLMS04432)
Correct for Detector Non-linearity: No (FLMS04432)
Correct for Stray Light: No (FLMS04432)
Number of Pixels in Processed Spectrum: 2048
>>>>>Begin Processed Spectral Data<<<<<
188.46	12.14
188.85	12.14
189.24	12.14
189.63	-24.27
190.02	-80.10
190.41	16.99
190.80	19.42
191.19	-101.94
191.58	-16.99
191.96	75.24
192.35	16.99
192.74	-24.27
193.13	31.55
193.52	-43.69
193.91	-4.85
194.30	65.53
194.69	109.22
195.08	9.71
195.47	-50.97
195.86	-50.97
196.24	-50.97
196.63	92.23
197.02	82.53
197.41	50.97
197.80	63.11
198.19	-50.97
198.58	-36.41
198.96	65.54
199.35	53.40
199.74	-7.28
200.13	4.85
200.52	-36.41
200.91	-16.99
201.29	26.70
201.68	-48.54
202.07	-55.83
202.46	58.25
202.85	101.94
203.24	65.53
203.62	4.85
204.01	-38.84
204.40	-87.38
204.79	104.37
205.17	-7.28
205.56	16.99
205.95	-43.69
206.34	-77.67
206.73	55.83
207.11	72.82
207.50	-50.97
207.89	7.28
208.28	4.85
208.66	12.14
209.05	60.68
209.44	0.00
209.83	12.14
210.21	-99.52
210.60	-19.42
210.99	7.28
211.37	-43.69
211.76	-43.69
212.15	-33.98
212.54	4.85
212.92	-26.70
213.31	-16.99
213.70	2.43
214.08	-7.28
214.47	21.84
214.86	84.95
215.24	9.71
215.63	-29.13
216.02	-7.28
216.40	-38.84
216.79	-38.84
217.18	9.71
217.56	-67.96
217.95	53.40
218.33	67.96
218.72	-24.27
219.11	9.71
219.49	-111.65
219.88	46.12
220.27	-101.94
220.65	2.43
221.04	9.71
221.42	-60.68
221.81	-60.68
222.20	16.99
222.58	48.54
222.97	-9.71
223.35	0.00
223.74	-36.41
224.13	26.70
224.51	48.54
224.90	19.42
225.28	-19.42
225.67	65.53
226.05	38.84
226.44	-53.40
226.82	0.00
227.21	14.56
227.59	33.98
227.98	33.98
228.36	60.68
228.75	-4.85
229.14	55.83
229.52	-7.28
229.91	-16.99
230.29	4.85
230.68	80.10
231.06	-12.14
231.45	46.12
231.83	-94.66
232.21	-104.37
232.60	-21.84
232.98	19.42
233.37	41.26
233.75	31.55
234.14	-16.99
234.52	48.54
234.91	72.82
235.29	-65.53
235.68	43.69
236.06	48.54
236.44	-4.85
236.83	-36.41
237.21	126.22
237.60	-152.91
237.98	-53.40
238.37	7.28
238.75	21.84
239.13	-29.13
239.52	63.11
239.90	-75.24
240.29	-29.13
240.67	72.82
241.05	4.85
241.44	12.14
241.82	48.54
242.20	48.54
242.59	89.81
242.97	-31.55
243.35	7.28
243.74	-9.71
244.12	43.69
244.51	43.69
244.89	-36.41
245.27	-148.06
245.66	38.84
246.04	21.84
246.42	41.26
246.80	-65.53
247.19	155.34
247.57	53.40
247.95	138.35
248.34	-38.84
248.72	-38.84
249.10	38.84
249.49	-36.41
249.87	41.26
250.25	14.56
250.63	63.11
251.02	63.11
251.40	26.70
251.78	-7.28
252.16	-36.41
252.55	-12.14
252.93	60.68
253.31	2.43
253.69	-31.55
254.08	-63.11
254.46	-29.13
254.84	-58.25
255.22	65.53
255.60	-114.08
255.99	118.93
256.37	111.65
256.75	-38.84
257.13	14.56
257.51	60.68
257.90	70.39
258.28	89.81
258.66	33.98
259.04	-60.68
259.42	-16.99
259.81	12.14
260.19	16.99
260.57	41.26
260.95	-111.65
261.33	53.40
261.71	-14.56
262.09	63.11
262.48	-36.41
262.86	-7.28
263.24	-84.95
263.62	-21.84
264.00	-26.70
264.38	-31.55
264.76	36.41
265.14	60.68
265.53	31.55
265.91	31.55
266.29	-36.41
266.67	-16.99
267.05	-21.84
267.43	92.23
267.81	-4.85
268.19	-21.84
268.57	19.42
268.95	33.98
269.33	41.26
269.71	-12.14
270.09	12.14
270.47	67.96
270.85	-7.28
271.23	-114.08
271.62	-36.41
272.00	29.13
272.38	106.80
272.76	58.25
273.14	-29.13
273.52	19.42
273.90	4.85
274.28	-24.27
274.66	29.13
275.04	116.51
275.42	58.25
275.80	-2.43
276.18	-7.28
276.55	-14.56
276.93	-63.11
277.31	135.92
277.69	126.22
278.07	7.28
278.45	-55.83
278.83	-26.70
279.21	63.11
279.59	-58.25
279.97	-104.37
280.35	36.41
280.73	-7.28
281.11	16.99
281.49	145.63
281.87	29.13
282.25	-53.40
282.62	-53.40
283.00	58.25
283.38	-63.11
283.76	-82.53
284.14	46.12
284.52	99.52
284.90	-53.40
285.28	31.55
285.65	89.81
286.03	4.85
286.41	-55.83
286.79	60.68
287.17	143.21
287.55	89.81
287.93	-46.12
288.30	72.82
288.68	2.43
289.06	12.14
289.44	-38.84
289.82	50.97
290.20	-84.95
290.57	-21.85
290.95	-14.56
291.33	19.42
291.71	-9.71
292.09	-29.13
292.46	-21.84
292.84	94.66
293.22	19.42
293.60	-33.98
293.97	29.13
294.35	-67.96
294.73	4.85
295.11	38.84
295.48	80.10
295.86	19.42
296.24	116.51
296.62	104.37
296.99	63.11
297.37	4.85
297.75	14.56
298.13	53.40
298.50	-97.09
298.88	-26.70
299.26	-26.70
299.63	-65.53
300.01	70.39
300.39	24.27
300.77	65.53
301.14	80.10
301.52	29.13
301.90	-26.70
302.27	7.28
302.65	-116.51
303.03	-48.54
303.40	9.71
303.78	-16.99
304.16	-150.49
304.53	97.09
304.91	-106.80
305.28	-14.56
305.66	-63.11
306.04	50.97
306.41	-38.84
306.79	-43.69
307.17	36.41
307.54	70.39
307.92	2.43
308.29	-19.42
308.67	75.24
309.05	-19.42
309.42	-92.23
309.80	-82.53
310.17	-43.69
310.55	19.42
310.92	0.00
311.30	-50.97
311.68	-31.55
312.05	-21.85
312.43	82.53
312.80	-67.96
313.18	94.66
313.55	-97.09
313.93	-33.98
314.30	7.28
314.68	53.40
315.05	-38.84
315.43	72.82
315.80	-84.95
316.18	118.93
316.55	26.70
316.93	-19.42
317.30	-167.48
317.68	82.53
318.05	41.26
318.43	4.85
318.80	33.98
319.18	33.98
319.55	-55.83
319.93	167.48
320.30	80.10
320.68	50.97
321.05	-2.43
321.43	-58.25
321.80	111.65
322.17	14.56
322.55	-92.23
322.92	-24.27
323.30	43.69
323.67	12.14
324.05	109.22
324.42	-75.24
324.79	-7.28
325.17	114.08
325.54	111.65
325.92	-50.97
326.29	-2.43
326.66	-12.14
327.04	9.71
327.41	-16.99
327.78	-16.99
328.16	65.54
328.53	2.43
328.91	106.80
329.28	-165.05
329.65	-7.28
330.03	16.99
330.40	84.95
330.77	14.56
331.15	9.71
331.52	29.13
331.89	2.43
332.27	2.43
332.64	-36.41
333.01	63.11
333.38	-24.27
333.76	16.99
334.13	-77.67
334.50	-53.40
334.88	-46.12
335.25	12.14
335.62	-53.40
335.99	38.84
336.37	-75.24
336.74	82.53
337.11	-46.12
337.48	-46.12
337.86	-24.27
338.23	7.28
338.60	2.43
338.97	99.52
339.35	70.39
339.72	55.83
340.09	-16.99
340.46	-50.97
340.84	21.84
341.21	41.26
341.58	26.70
341.95	0.00
342.32	24.27
342.70	9.71
343.07	126.22
343.44	-31.55
343.81	106.80
344.18	114.08
344.55	87.38
344.93	155.34
345.30	26.70
345.67	155.34
346.04	310.68
346.41	281.56
346.78	359.23
347.15	604.38
347.53	796.13
347.90	1097.10
348.27	1519.44
348.64	1907.80
349.01	2665.09
349.38	3359.28
349.75	4043.75
350.12	4754.93
350.49	5871.45
350.87	6555.93
351.24	7485.55
351.61	7876.34
351.98	8398.19
352.35	8895.77
352.72	9055.97
353.09	8932.18
353.46	8548.68
353.83	8000.12
354.20	7058.36
354.57	6157.86
354.94	5417.56
355.31	4604.44
355.68	3854.43
356.05	3009.76
356.42	2293.73
356.79	1820.42
357.16	1519.44
357.53	985.45
357.90	689.33
358.27	575.25
358.64	434.47
359.01	332.53
359.38	337.38
359.75	150.49
360.12	41.26
360.49	2.43
360.86	-43.69
361.23	9.71
361.60	-75.24
361.97	-2.43
362.34	58.25
362.71	21.84
363.08	77.67
363.45	143.21
363.82	50.97
364.19	29.13
364.56	111.65
364.93	-14.56
365.30	-43.69
365.66	21.85
366.03	82.53
366.40	21.85
366.77	-12.14
367.14	-2.43
367.51	53.40
367.88	31.55
368.25	53.40
368.62	-29.13
368.98	135.92
369.35	-26.70
369.72	82.53
370.09	-65.53
370.46	106.80
370.83	4.85
371.20	-21.85
371.56	50.97
371.93	-43.69
372.30	48.54
372.67	46.12
373.04	-55.83
373.41	63.11
373.77	-7.28
374.14	-126.22
374.51	75.24
374.88	9.71
375.25	-55.83
375.61	75.24
375.98	67.96
376.35	-2.43
376.72	101.94
377.08	-84.95
377.45	50.97
377.82	-33.98
378.19	31.55
378.55	55.83
378.92	-38.84
379.29	-63.11
379.66	65.53
380.02	48.54
380.39	12.14
380.76	-33.98
381.13	12.14
381.49	4.85
381.86	38.84
382.23	-31.55
382.59	16.99
382.96	-128.64
383.33	7.28
383.70	-58.25
384.06	-29.13
384.43	145.63
384.80	26.70
385.16	16.99
385.53	-33.98
385.90	77.67
386.26	-67.96
386.63	43.69
387.00	43.69
387.36	16.99
387.73	-33.98
388.09	48.54
388.46	-80.10
388.83	148.06
389.19	99.52
389.56	-12.14
389.93	33.98
390.29	-53.40
390.66	31.55
391.02	50.97
391.39	53.40
391.75	123.79
392.12	36.41
392.49	50.97
392.85	-70.39
393.22	94.66
393.58	-4.85
393.95	-26.70
394.31	26.70
394.68	-58.25
395.05	-24.27
395.41	26.70
395.78	9.71
396.14	-63.11
396.51	33.98
396.87	21.85
397.24	89.81
397.60	9.71
397.97	31.55
398.33	-31.55
398.70	-33.98
399.06	12.14
399.43	126.22
399.79	33.98
400.16	19.42
400.52	89.81
400.89	77.67
401.25	63.11
401.62	-65.54
401.98	-48.54
402.35	-77.67
402.71	14.56
403.07	-26.70
403.44	92.23
403.80	9.71
404.17	116.51
404.53	46.12
404.90	26.70
405.26	-12.14
405.62	-53.40
405.99	-87.38
406.35	-24.27
406.72	-4.85
407.08	0.00
407.44	-16.99
407.81	-38.84
408.17	143.21
408.54	-2.43
408.90	82.53
409.26	82.53
409.63	48.54
409.99	-29.13
410.35	-4.85
410.72	50.97
411.08	-2.43
411.44	63.11
411.81	43.69
412.17	7.28
412.53	36.41
412.90	31.55
413.26	-36.41
413.62	-2.43
413.99	-12.14
414.35	-16.99
414.71	-19.42
415.08	-9.71
415.44	104.37
415.80	43.69
416.16	104.37
416.53	0.00
416.89	53.40
417.25	89.81
417.61	-31.55
417.98	43.69
418.34	29.13
418.70	-26.70
419.06	31.55
419.43	-48.54
419.79	65.53
420.15	-77.67
420.51	-12.14
420.88	36.41
421.24	4.85
421.60	-19.42
421.96	38.84
422.32	72.82
422.69	-7.28
423.05	-41.26
423.41	-38.84
423.77	-24.27
424.13	114.08
424.50	2.43
424.86	58.25
425.22	43.69
425.58	-26.70
425.94	-9.71
426.30	-31.55
426.67	-63.11
427.03	-16.99
427.39	-19.42
427.75	24.27
428.11	-94.66
428.47	7.28
428.83	-24.27
429.19	-111.65
429.56	75.24
429.92	31.55
430.28	-48.54
430.64	41.26
431.00	50.97
431.36	-14.56
431.72	109.22
432.08	87.38
432.44	-2.43
432.80	101.94
433.16	41.26
433.52	4.85
433.89	67.96
434.25	41.26
434.61	-2.43
434.97	46.12
435.33	21.84
435.69	-38.84
436.05	82.53
436.41	89.81
436.77	0.00
437.13	55.83
437.49	-9.71
437.85	-94.66
438.21	24.27
438.57	101.94
438.93	4.85
439.29	33.98
439.65	-24.27
440.01	-7.28
440.37	21.85
440.73	118.93
441.09	31.55
441.45	75.24
441.81	-4.85
442.16	24.27
442.52	94.66
442.88	50.97
443.24	-53.40
443.60	36.41
443.96	7.28
444.32	111.65
444.68	67.96
445.04	36.41
445.40	31.55
445.76	84.95
446.12	-50.97
446.48	-72.82
446.83	31.55
447.19	58.25
447.55	126.22
447.91	-36.41
448.27	-16.99
448.63	148.06
448.99	-33.98
449.34	77.67
449.70	7.28
450.06	60.68
450.42	106.80
450.78	65.53
451.14	0.00
451.50	63.11
451.85	-43.69
452.21	19.42
452.57	21.84
452.93	67.96
453.29	-46.12
453.64	-65.53
454.00	58.25
454.36	-99.52
454.72	4.85
455.08	-31.55
455.43	-14.56
455.79	116.51
456.15	70.39
456.51	36.41
456.86	-7.28
457.22	36.41
457.58	67.96
457.94	60.68
458.29	38.84
458.65	150.49
459.01	-46.12
459.37	82.53
459.72	70.39
460.08	-19.42
460.44	-55.83
460.79	14.56
461.15	80.10
461.51	72.82
461.86	29.13
462.22	-58.25
462.58	-21.85
462.94	7.28
463.29	-12.14
463.65	111.65
464.01	0.00
464.36	84.95
464.72	-16.99
465.08	-67.96
465.43	-84.95
465.79	-43.69
466.14	-36.41
466.50	-53.40
466.86	-63.11
467.21	-121.36
467.57	60.68
467.93	50.97
468.28	-16.99
468.64	46.12
468.99	2.43
469.35	41.26
469.71	82.53
470.06	16.99
470.42	-12.14
470.77	16.99
471.13	-75.24
471.48	31.55
471.84	21.84
472.20	-33.98
472.55	-80.10
472.91	-19.42
473.26	82.53
473.62	50.97
473.97	16.99
474.33	-89.81
474.68	-67.96
475.04	36.41
475.39	26.70
475.75	60.68
476.10	36.41
476.46	48.54
476.81	4.85
477.17	-97.09
477.52	31.55
477.88	9.71
478.23	-121.36
478.59	-36.41
478.94	4.85
479.30	-19.42
479.65	0.00
480.01	41.26
480.36	-101.94
480.72	50.97
481.07	-77.67
481.42	-77.67
481.78	36.41
482.13	167.48
482.49	70.39
482.84	4.85
483.20	-160.20
483.55	-26.70
483.90	-19.42
484.26	21.84
484.61	-55.83
484.96	-2.43
485.32	143.21
485.67	-121.36
486.03	43.69
486.38	48.54
486.73	4.85
487.09	-43.69
487.44	-41.26
487.79	65.54
488.15	101.94
488.50	46.12
488.85	36.41
489.21	14.56
489.56	-48.54
489.91	65.53
490.27	-2.43
490.62	46.12
490.97	50.97
491.33	-77.67
491.68	-121.36
492.03	12.14
492.39	-4.85
492.74	26.70
493.09	-19.42
493.44	55.83
493.80	-46.12
494.15	26.70
494.50	-38.84
494.85	29.13
495.21	16.99
495.56	16.99
495.91	-97.09
496.26	72.82
496.62	-4.85
496.97	67.96
497.32	70.39
497.67	-24.27
498.03	55.83
498.38	12.14
498.73	-72.82
499.08	-50.97
499.43	-2.43
499.79	38.84
500.14	-53.40
500.49	16.99
500.84	16.99
501.19	26.70
501.54	24.27
501.90	-84.95
502.25	-16.99
502.60	7.28
502.95	9.71
503.30	31.55
503.65	58.25
504.00	26.70
504.36	65.53
504.71	-29.13
505.06	-7.28
505.41	38.84
505.76	46.12
506.11	-14.56
506.46	-67.96
506.81	14.56
507.16	-43.69
507.52	82.53
507.87	36.41
508.22	-145.63
508.57	182.04
508.92	26.70
509.27	99.52
509.62	24.27
509.97	4.85
510.32	-75.24
510.67	2.43
511.02	-97.09
511.37	-26.70
511.72	-31.55
512.07	-189.32
512.42	77.67
512.77	33.98
513.12	-2.43
513.47	-41.26
513.82	50.97
514.17	48.54
514.52	55.83
514.87	87.38
515.22	-24.27
515.57	55.83
515.92	-92.23
516.27	12.14
516.62	-4.85
516.97	-114.08
517.32	-7.28
517.67	41.26
518.02	-29.13
518.37	-12.14
518.72	-43.69
519.07	-53.40
519.42	-14.56
519.77	24.27
520.12	-60.68
520.46	-36.41
520.81	60.68
521.16	50.97
521.51	-60.68
521.86	41.26
522.21	14.56
522.56	-31.55
522.91	4.85
523.26	-77.67
523.60	63.11
523.95	2.43
524.30	-2.43
524.65	-50.97
525.00	0.00
525.35	-46.12
525.70	-7.28
526.04	24.27
526.39	-31.55
526.74	33.98
527.09	-26.70
527.44	9.71
527.78	94.66
528.13	7.28
528.48	-21.84
528.83	-111.65
529.18	87.38
529.52	72.82
529.87	99.52
530.22	33.98
530.57	-12.14
530.92	-92.23
531.26	55.83
531.61	94.66
531.96	7.28
532.31	55.83
532.65	-7.28
533.00	43.69
533.35	33.98
533.70	53.40
534.04	9.71
534.39	-16.99
534.74	-21.84
535.08	-99.52
535.43	-2.43
535.78	63.11
536.13	16.99
536.47	12.14
536.82	50.97
537.17	7.28
537.51	7.28
537.86	24.27
538.21	16.99
538.55	-16.99
538.90	16.99
539.25	-4.85
539.59	-80.10
539.94	-58.25
540.29	4.85
540.63	-65.53
540.98	80.10
541.32	123.79
541.67	92.23
542.02	65.53
542.36	21.84
542.71	118.93
543.05	135.92
543.40	-7.28
543.75	33.98
544.09	-48.54
544.44	-60.68
544.78	131.07
545.13	53.40
545.48	-41.26
545.82	121.36
546.17	-48.54
546.51	12.14
546.86	55.83
547.20	101.94
547.55	26.70
547.89	67.96
548.24	-29.13
548.58	21.84
548.93	-16.99
549.28	2.43
549.62	24.27
549.97	9.71
550.31	-7.28
550.66	-7.28
551.00	-87.38
551.34	2.43
551.69	77.67
552.03	116.51
552.38	-58.25
552.72	4.85
553.07	-19.42
553.41	-97.09
553.76	140.78
554.10	58.25
554.45	36.41
554.79	72.82
555.14	43.69
555.48	-7.28
555.82	33.98
556.17	48.54
556.51	-60.68
556.86	123.79
557.20	-21.85
557.54	94.66
557.89	-19.42
558.23	-80.10
558.58	145.63
558.92	-19.42
559.26	41.26
559.61	58.25
559.95	31.55
560.29	-43.69
560.64	126.22
560.98	-58.25
561.33	29.13
561.67	38.84
562.01	-41.26
562.36	48.54
562.70	-72.82
563.04	-14.56
563.39	29.13
563.73	-14.56
564.07	9.71
564.41	55.83
564.76	50.97
565.10	-97.09
565.44	55.83
565.79	82.53
566.13	2.43
566.47	-9.71
566.81	-24.27
567.16	29.13
567.50	-55.83
567.84	-26.70
568.18	-67.96
568.53	31.55
568.87	-63.11
569.21	38.84
569.55	-31.55
569.90	97.09
570.24	-24.27
570.58	-143.21
570.92	106.80
571.27	19.42
571.61	92.23
571.95	84.95
572.29	-55.83
572.63	-106.80
572.97	-63.11
573.32	31.55
573.66	-16.99
574.00	-12.14
574.34	0.00
574.68	-36.41
575.02	31.55
575.37	-21.85
575.71	38.84
576.05	-9.71
576.39	-36.41
576.73	0.00
577.07	48.54
577.41	72.82
577.76	14.56
578.10	24.27
578.44	87.38
578.78	-4.85
579.12	21.85
579.46	46.12
579.80	138.35
580.14	4.85
580.48	36.41
580.82	0.00
581.16	26.70
581.51	75.24
581.85	-109.22
582.19	-9.71
582.53	-9.71
582.87	-84.95
583.21	118.93
583.55	50.97
583.89	155.34
584.23	-9.71
584.57	106.80
584.91	31.55
585.25	-14.56
585.59	-14.56
585.93	-92.23
586.27	-67.96
586.61	7.28
586.95	-41.26
587.29	-41.26
587.63	-50.97
587.97	-4.85
588.31	-16.99
588.65	-7.28
588.99	-150.49
589.33	-60.68
589.67	-50.97
590.01	2.43
590.34	14.56
590.68	-36.41
591.02	-31.55
591.36	-12.14
591.70	-16.99
592.04	26.70
592.38	84.95
592.72	-14.56
593.06	43.69
593.40	31.55
593.74	160.20
594.07	-60.68
594.41	-2.43
594.75	-109.22
595.09	-9.71
595.43	55.83
595.77	-4.85
596.11	33.98
596.44	38.84
596.78	97.09
597.12	4.85
597.46	31.55
597.80	31.55
598.14	-38.84
598.47	4.85
598.81	-16.99
599.15	29.13
599.49	-38.84
599.83	4.85
600.17	-21.85
600.50	-65.53
600.84	63.11
601.18	-19.42
601.52	-46.12
601.85	87.38
602.19	-7.28
602.53	-60.68
602.87	-48.54
603.20	21.85
603.54	43.69
603.88	-2.43
604.22	150.49
604.55	-9.71
604.89	80.10
605.23	36.41
605.57	150.49
605.90	46.12
606.24	-4.85
606.58	-38.84
606.91	43.69
607.25	-16.99
607.59	55.83
607.92	89.81
608.26	29.13
608.60	-31.55
608.94	0.00
609.27	-33.98
609.61	50.97
609.94	14.56
610.28	-48.54
610.62	58.25
610.95	41.26
611.29	65.54
611.63	89.81
611.96	92.23
612.30	-38.84
612.64	7.28
612.97	101.94
613.31	53.40
613.64	36.41
613.98	14.56
614.32	41.26
614.65	148.06
614.99	-7.28
615.32	7.28
615.66	-99.52
615.99	29.13
616.33	-104.37
616.67	33.98
617.00	43.69
617.34	-63.11
617.67	-14.56
618.01	99.52
618.34	75.24
618.68	-7.28
619.01	31.55
619.35	-118.93
619.68	12.14
620.02	53.40
620.35	-19.42
620.69	-82.53
621.02	-9.71
621.36	29.13
621.69	-50.97
622.03	58.25
622.36	-2.43
622.70	106.80
623.03	63.11
623.37	-65.53
623.70	63.11
624.04	89.81
624.37	53.40
624.70	-60.68
625.04	97.09
625.37	55.83
625.71	-36.41
626.04	26.70
626.38	-43.69
626.71	9.71
627.04	-38.84
627.38	46.12
627.71	41.26
628.05	50.97
628.38	24.27
628.71	29.13
629.05	123.79
629.38	106.80
629.71	118.93
630.05	-65.53
630.38	33.98
630.72	4.85
631.05	63.11
631.38	-12.14
631.72	-2.43
632.05	50.97
632.38	31.55
632.72	21.84
633.05	14.56
633.38	36.41
633.71	26.70
634.05	12.14
634.38	36.41
634.71	7.28
635.05	-46.12
635.38	-94.66
635.71	-55.83
636.04	109.22
636.38	-92.23
636.71	14.56
637.04	-46.12
637.38	-14.56
637.71	-24.27
638.04	-50.97
638.37	12.14
638.70	26.70
639.04	-36.41
639.37	99.52
639.70	82.53
640.03	-29.13
640.37	46.12
640.70	48.54
641.03	-48.54
641.36	7.28
641.69	29.13
642.03	14.56
642.36	111.65
642.69	67.96
643.02	48.54
643.35	9.71
643.68	46.12
644.02	128.64
644.35	43.69
644.68	58.25
645.01	-38.84
645.34	-4.85
645.67	-12.14
646.00	-46.12
646.33	-77.67
646.67	58.25
647.00	60.68
647.33	94.66
647.66	-48.54
647.99	4.85
648.32	38.84
648.65	-48.54
648.98	-9.71
649.31	-14.56
649.64	36.41
649.97	-9.71
650.31	-43.69
650.64	33.98
650.97	31.55
651.30	-12.14
651.63	24.27
651.96	46.12
652.29	36.41
652.62	87.38
652.95	114.08
653.28	-31.55
653.61	-4.85
653.94	-50.97
654.27	-38.84
654.60	41.26
654.93	-29.13
655.26	60.68
655.59	36.41
655.92	-48.54
656.25	33.98
656.58	4.85
656.91	55.83
657.24	19.42
657.57	-19.42
657.90	46.12
658.22	-2.43
658.55	-36.41
658.88	-9.71
659.21	48.54
659.54	-48.54
659.87	-53.40
660.20	33.98
660.53	-33.98
660.86	24.27
661.19	-48.54
661.52	-12.14
661.85	31.55
662.17	-46.12
662.50	41.26
662.83	-87.38
663.16	48.54
663.49	46.12
663.82	-7.28
664.15	-46.12
664.47	-53.40
664.80	53.40
665.13	33.98
665.46	-2.43
665.79	60.68
666.12	-80.10
666.44	2.43
666.77	-46.12
667.10	-63.11
667.43	33.98
667.76	-33.98
668.08	-58.25
668.41	63.11
668.74	-89.81
669.07	55.83
669.40	31.55
669.72	-92.23
670.05	-50.97
670.38	2.43
670.71	33.98
671.03	-2.43
671.36	-46.12
671.69	50.97
672.02	-50.97
672.34	80.10
672.67	-46.12
673.00	-41.26
673.32	-21.84
673.65	38.84
673.98	29.13
674.31	2.43
674.63	94.66
674.96	-65.54
675.29	72.82
675.61	116.51
675.94	-50.97
676.27	84.95
676.59	-7.28
676.92	-7.28
677.25	-160.20
677.57	58.25
677.90	19.42
678.23	-9.71
678.55	-77.67
678.88	-99.52
679.20	-24.27
679.53	43.69
679.86	-126.22
680.18	-4.85
680.51	-43.69
680.83	-60.68
681.16	-31.55
681.49	-9.71
681.81	-7.28
682.14	-46.12
682.46	-70.39
682.79	21.85
683.11	14.56
683.44	60.68
683.77	-12.14
684.09	0.00
684.42	-12.14
684.74	-26.70
685.07	-36.41
685.39	24.27
685.72	9.71
686.04	-70.39
686.37	-53.40
686.69	-14.56
687.02	-12.14
687.34	-38.84
687.67	48.54
687.99	-41.26
688.32	55.83
688.64	-14.56
688.97	48.54
689.29	67.96
689.62	-36.41
689.94	87.38
690.27	-41.26
690.59	53.40
690.91	4.85
691.24	24.27
691.56	9.71
691.89	97.09
692.21	-2.43
692.54	-70.39
692.86	12.14
693.18	29.13
693.51	19.42
693.83	-14.56
694.16	-67.96
694.48	53.40
694.80	92.23
695.13	4.85
695.45	-70.39
695.78	14.56
696.10	21.84
696.42	-36.41
696.75	21.84
697.07	-48.54
697.39	21.84
697.72	104.37
698.04	53.40
698.36	55.83
698.69	-24.27
699.01	-14.56
699.33	114.08
699.66	-84.95
699.98	7.28
700.30	2.43
700.62	16.99
700.95	-36.41
701.27	-19.42
701.59	-53.40
701.92	-87.38
702.24	-4.85
702.56	-41.26
702.88	0.00
703.21	2.43
703.53	58.25
703.85	104.37
704.17	-21.85
704.50	-19.42
704.82	184.47
705.14	-189.32
705.46	-63.11
705.78	7.28
706.11	-87.38
706.43	29.13
706.75	12.14
707.07	-12.14
707.39	-33.98
707.72	29.13
708.04	33.98
708.36	7.28
708.68	84.95
709.00	104.37
709.32	111.65
709.65	36.41
709.97	-48.54
710.29	80.10
710.61	-46.12
710.93	16.99
711.25	63.11
711.57	-38.84
711.90	-7.28
712.22	-99.52
712.54	4.85
712.86	-26.70
713.18	53.40
713.50	-33.98
713.82	-14.56
714.14	31.55
714.46	-63.11
714.78	84.95
715.10	60.68
715.42	-84.95
715.75	-94.66
716.07	31.55
716.39	-104.37
716.71	-33.98
717.03	-46.12
717.35	75.24
717.67	82.53
717.99	99.52
718.31	75.24
718.63	7.28
718.95	67.96
719.27	60.68
719.59	43.69
719.91	-19.42
720.23	-7.28
720.55	48.54
720.87	84.95
721.19	-12.14
721.51	-48.54
721.83	-7.28
722.15	82.53
722.47	7.28
722.78	19.42
723.10	-48.54
723.42	-9.71
723.74	41.26
724.06	82.53
724.38	33.98
724.70	29.13
725.02	43.69
725.34	-29.13
725.66	60.68
725.98	-41.26
726.30	43.69
726.61	-12.14
726.93	-29.13
727.25	-9.71
727.57	43.69
727.89	46.12
728.21	72.82
728.53	-48.54
728.84	-82.53
729.16	16.99
729.48	-109.22
729.80	16.99
730.12	121.36
730.44	75.24
730.75	-2.43
731.07	-101.94
731.39	-43.69
731.71	55.83
732.03	48.54
732.34	24.27
732.66	7.28
732.98	-89.81
733.30	-101.94
733.62	58.25
733.93	-16.99
734.25	4.85
734.57	75.24
734.89	99.52
735.20	33.98
735.52	-63.11
735.84	-46.12
736.16	12.14
736.47	65.53
736.79	41.26
737.11	75.24
737.42	0.00
737.74	-67.96
738.06	67.96
738.38	70.39
738.69	-58.25
739.01	-101.94
739.33	-19.42
739.64	-58.25
739.96	36.41
740.28	-29.13
740.59	89.81
740.91	-53.40
741.23	0.00
741.54	41.26
741.86	63.11
742.17	0.00
742.49	-60.68
742.81	-4.85
743.12	-138.35
743.44	-2.43
743.76	-4.85
744.07	-38.84
744.39	26.70
744.70	-7.28
745.02	36.41
745.34	2.43
745.65	48.54
745.97	53.40
746.28	80.10
746.60	-19.42
746.91	75.24
747.23	-38.84
747.55	2.43
747.86	80.10
748.18	38.84
748.49	-33.98
748.81	-38.84
749.12	-116.51
749.44	-43.69
749.75	9.71
750.07	-60.68
750.38	72.82
750.70	-9.71
751.01	-26.70
751.33	111.65
751.64	60.68
751.96	12.14
752.27	-14.56
752.59	41.26
752.90	-12.14
753.22	38.84
753.53	-29.13
753.84	-60.68
754.16	60.68
754.47	41.26
754.79	-67.96
755.10	-38.84
755.42	-55.83
755.73	-2.43
756.04	-116.51
756.36	-29.13
756.67	9.71
756.99	7.28
757.30	-9.71
757.61	-67.96
757.93	29.13
758.24	-48.54
758.55	12.14
758.87	-4.85
759.18	-58.25
759.50	53.40
759.81	-24.27
760.12	-4.85
760.44	-36.41
760.75	19.42
761.06	21.85
761.38	12.14
761.69	60.68
762.00	-7.28
762.32	33.98
762.63	-7.28
762.94	-29.13
763.25	46.12
763.57	41.26
763.88	36.41
764.19	-48.54
764.51	-77.67
764.82	21.85
765.13	-29.13
765.44	60.68
765.76	-33.98
766.07	-9.71
766.38	31.55
766.69	135.92
767.01	24.27
767.32	-7.28
767.63	-4.85
767.94	-21.85
768.25	-14.56
768.57	-65.53
768.88	-58.25
769.19	21.85
769.50	14.56
769.81	21.85
770.13	-50.97
770.44	-9.71
770.75	-31.55
771.06	26.70
771.37	-31.55
771.68	-29.13
772.00	-38.84
772.31	84.95
772.62	84.95
772.93	48.54
773.24	-4.85
773.55	4.85
773.86	72.82
774.17	-14.56
774.49	4.85
774.80	-12.14
775.11	31.55
775.42	-70.39
775.73	123.79
776.04	-55.83
776.35	2.43
776.66	50.97
776.97	-63.11
777.28	24.27
777.59	-38.84
777.90	53.40
778.21	26.70
778.52	70.39
778.83	-46.12
779.15	-29.13
779.46	-7.28
779.77	-19.42
780.08	-21.84
780.39	-99.52
780.70	-14.56
781.01	19.42
781.32	-38.84
781.63	-36.41
781.94	12.14
782.25	7.28
782.56	-14.56
782.86	-24.27
783.17	48.54
783.48	-14.56
783.79	16.99
784.10	2.43
784.41	46.12
784.72	19.42
785.03	-89.81
785.34	-21.85
785.65	31.55
785.96	65.53
786.27	-82.53
786.58	-70.39
786.89	-60.68
787.19	82.53
787.50	-24.27
787.81	-70.39
788.12	123.79
788.43	65.53
788.74	128.64
789.05	94.66
789.36	70.39
789.66	-16.99
789.97	-65.53
790.28	87.38
790.59	46.12
790.90	84.95
791.21	89.81
791.52	31.55
791.82	-106.80
792.13	38.84
792.44	84.95
792.75	14.56
793.06	65.53
793.36	-24.27
793.67	24.27
793.98	9.71
794.29	-70.39
794.59	0.00
794.90	196.61
795.21	26.70
795.52	-43.69
795.82	58.25
796.13	0.00
796.44	-14.56
796.75	67.96
797.05	16.99
797.36	-14.56
797.67	-38.84
797.98	94.66
798.28	-63.11
798.59	-36.41
798.90	31.55
799.20	-63.11
799.51	82.53
799.82	-99.52
800.12	21.84
800.43	106.80
800.74	-65.54
801.04	-7.28
801.35	24.27
801.66	-21.84
801.96	19.42
802.27	-24.27
802.58	21.84
802.88	-75.24
803.19	29.13
803.50	9.71
803.80	-46.12
804.11	-29.13
804.41	0.00
804.72	169.91
805.03	-67.96
805.33	-60.68
805.64	58.25
805.94	-87.38
806.25	-2.43
806.56	38.84
806.86	-2.43
807.17	-101.94
807.47	87.38
807.78	67.96
808.08	-33.98
808.39	0.00
808.69	2.43
809.00	-48.54
809.30	58.25
809.61	50.97
809.91	-4.85
810.22	46.12
810.52	4.85
810.83	-48.54
811.13	9.71
811.44	118.93
811.74	-9.71
812.05	16.99
812.35	72.82
812.66	-19.42
812.96	-43.69
813.27	0.00
813.57	26.70
813.88	70.39
814.18	38.84
814.49	26.70
814.79	-106.80
815.09	-77.67
815.40	41.26
815.70	-4.85
816.01	67.96
816.31	-33.98
816.61	33.98
816.92	70.39
817.22	12.14
817.53	-4.85
817.83	-26.70
818.13	31.55
818.44	38.84
818.74	99.52
819.04	65.54
819.35	126.22
819.65	-2.43
819.95	101.94
820.26	-2.43
820.56	-55.83
820.86	58.25
821.17	-67.96
821.47	114.08
821.77	67.96
822.08	101.94
822.38	4.85
822.68	-38.84
822.99	12.14
823.29	58.25
823.59	50.97
823.89	-7.28
824.20	9.71
824.50	48.54
824.80	19.42
825.10	14.56
825.41	-33.98
825.71	58.25
826.01	-48.54
826.31	-33.98
826.62	-16.99
826.92	41.26
827.22	77.67
827.52	33.98
827.82	-99.52
828.13	-63.11
828.43	29.13
828.73	33.98
829.03	84.95
829.33	67.96
829.64	94.66
829.94	4.85
830.24	12.14
830.54	87.38
830.84	67.96
831.14	12.14
831.45	2.43
831.75	-24.27
832.05	-63.11
832.35	-38.84
832.65	-14.56
832.95	-48.54
833.25	-60.68
833.55	50.97
833.85	4.85
834.16	-60.68
834.46	116.51
834.76	33.98
835.06	4.85
835.36	-16.99
835.66	50.97
835.96	9.71
836.26	2.43
836.56	16.99
836.86	99.52
837.16	75.24
837.46	14.56
837.76	29.13
838.06	-55.83
838.36	-53.40
838.66	109.22
838.96	65.53
839.26	-48.54
839.56	43.69
839.86	41.26
840.16	-41.26
840.46	101.94
840.76	-14.56
841.06	7.28
841.36	29.13
841.66	89.81
841.96	-60.68
842.26	-26.70
842.56	33.98
842.86	14.56
843.16	9.71
843.46	-55.83
843.76	-43.69
844.06	-46.12
844.36	-65.54
844.66	-82.53
844.95	-58.25
845.25	12.14
845.55	106.80
845.85	72.82
846.15	65.54
846.45	48.54
846.75	21.85
847.05	58.25
847.35	12.14
847.64	14.56
847.94	-43.69
848.24	89.81
848.54	63.11
848.84	-94.66
849.14	-70.39
849.43	46.12
849.73	84.95
850.03	-60.68
850.33	-38.84
850.63	16.99
850.92	-29.13
851.22	9.71
851.52	21.85
851.82	-53.40
852.12	92.23
852.41	-14.56
852.71	-43.69
853.01	-48.54
853.31	12.14
853.60	7.28
853.90	55.83
854.20	41.26
854.50	-24.27
854.79	135.92
855.09	-9.71
855.39	-41.26
855.69	-58.25
855.98	94.66
856.28	-9.71
856.58	0.00
856.87	-55.83
857.17	97.09
857.47	36.41
857.76	48.54
858.06	29.13
858.36	-82.53
858.65	-43.69
858.95	109.22
859.25	19.42
859.54	-53.40
859.84	-16.99
860.14	-7.28
860.43	-70.39
860.73	-29.13
861.03	-65.53
861.32	-99.52
861.62	50.97
861.91	-16.99
862.21	0.00
862.51	94.66
862.80	99.52
863.10	48.54
863.39	-63.11
863.69	38.84
863.98	-2.43
864.28	-2.43
864.58	126.22
864.87	-70.39
865.17	-33.98
865.46	16.99
865.76	14.56
866.05	0.00
866.35	58.25
866.64	16.99
866.94	104.37
867.23	41.26
867.53	126.22
867.82	-19.42
868.12	31.55
868.41	33.98
868.71	-16.99
869.00	-4.85
869.30	-33.98
869.59	-9.71
869.89	41.26
870.18	-2.43
870.48	148.06
870.77	-36.41
871.06	-48.54
871.36	33.98
871.65	-46.12
871.95	2.43
872.24	-84.95
872.54	53.40
872.83	182.04
873.12	-46.12
873.42	-70.39
873.71	21.85
874.01	-2.43
874.30	-89.81
874.59	14.56
874.89	4.85
875.18	89.81
875.47	16.99
875.77	9.71
876.06	-16.99
876.35	-99.52
876.65	36.41
876.94	60.68
877.23	-72.82
877.53	36.41
877.82	157.77
878.11	29.13
878.41	2.43
878.70	12.14
878.99	84.95
879.29	38.84
879.58	101.94
879.87	128.64
880.16	38.84
880.46	43.69
880.75	-29.13
881.04	-114.08
881.34	26.70
881.63	-53.40
881.92	-31.55
882.21	4.85
882.50	58.25
882.80	97.09
883.09	-31.55
883.38	106.80
883.67	-12.14
883.97	63.11
884.26	43.69
884.55	150.49
884.84	-97.09
885.13	-9.71
885.43	16.99
885.72	26.70
886.01	-114.08
886.30	92.23
886.59	-9.71
886.88	-87.38
887.17	-104.37
887.47	-2.43
887.76	31.55
888.05	4.85
888.34	67.96
888.63	67.96
888.92	67.96
>>>>>End Processed Spectral Data<<<<<
