SpectraSuite Data File
++++++++++++++++++++++++++++++++++++
Date: Fri Sep 01 10:40:20 CEST 2023
User: TAMINATOR
Dark Spectrum Present: Yes
Reference Spectrum Present: No
Number of Sampled Component Spectra: 1
Spectrometers: FLMS04432
Integration Time (usec): 450000 (FLMS04432)
Spectra Averaged: 1 (FLMS04432)
Boxcar Smoothing: 0 (FLMS04432)
Correct for Electrical Dark: No (FLMS04432)
Strobe/Lamp Enabled: No (FLMS04432)
Correct for Detector Non-linearity: No (FLMS04432)
Correct for Stray Light: No (FLMS04432)
Number of Pixels in Processed Spectrum: 2048
>>>>>Begin Processed Spectral Data<<<<<
188.46	82.53
188.85	82.53
189.24	82.53
189.63	31.55
190.02	14.56
190.41	-104.37
190.80	-114.08
191.19	-94.66
191.58	2.43
191.96	2.43
192.35	38.84
192.74	-106.80
193.13	38.84
193.52	-75.24
193.91	-75.24
194.30	58.25
194.69	-58.25
195.08	-33.98
195.47	0.00
195.86	-9.71
196.24	-228.16
196.63	-140.78
197.02	-7.28
197.41	-48.54
197.80	-101.94
198.19	2.43
198.58	-46.12
198.96	-26.70
199.35	-24.27
199.74	-80.10
200.13	14.56
200.52	53.40
200.91	-60.68
201.29	-50.97
201.68	-240.29
202.07	-2.43
202.46	36.41
202.85	9.71
203.24	-31.55
203.62	-70.39
204.01	-9.71
204.40	-87.38
204.79	-29.13
205.17	-121.36
205.56	-21.84
205.95	-72.82
206.34	-126.22
206.73	-33.98
207.11	-55.83
207.50	-12.14
207.89	-94.66
208.28	-43.69
208.66	-84.95
209.05	48.54
209.44	33.98
209.83	-60.68
210.21	128.64
210.60	-58.25
210.99	-140.78
211.37	-60.68
211.76	-48.54
212.15	53.40
212.54	77.67
212.92	65.53
213.31	-94.66
213.70	-24.27
214.08	-31.55
214.47	24.27
214.86	-131.07
215.24	-138.35
215.63	-7.28
216.02	31.55
216.40	-84.95
216.79	-60.68
217.18	48.54
217.56	-46.12
217.95	48.54
218.33	0.00
218.72	2.43
219.11	-63.11
219.49	-21.85
219.88	-63.11
220.27	67.96
220.65	-58.25
221.04	-114.08
221.42	26.70
221.81	-26.70
222.20	14.56
222.58	-24.27
222.97	-12.14
223.35	-38.84
223.74	-4.85
224.13	-41.26
224.51	-36.41
224.90	-58.25
225.28	-67.96
225.67	26.70
226.05	-14.56
226.44	-75.24
226.82	-116.51
227.21	4.85
227.59	-43.69
227.98	12.14
228.36	-118.93
228.75	-33.98
229.14	-157.77
229.52	-41.26
229.91	46.12
230.29	21.84
230.68	-46.12
231.06	65.53
231.45	-58.25
231.83	53.40
232.21	-58.25
232.60	-38.84
232.98	-41.26
233.37	-24.27
233.75	-123.79
234.14	-4.85
234.52	4.85
234.91	-50.97
235.29	-21.85
235.68	87.38
236.06	46.12
236.44	-7.28
236.83	-21.85
237.21	77.67
237.60	-67.96
237.98	33.98
238.37	-89.81
238.75	-121.36
239.13	-67.96
239.52	111.65
239.90	-128.64
240.29	-12.14
240.67	-60.68
241.05	-29.13
241.44	-65.53
241.82	-92.23
242.20	-104.37
242.59	89.81
242.97	-48.54
243.35	-53.40
243.74	-46.12
244.12	-14.56
244.51	4.85
244.89	-4.85
245.27	-12.14
245.66	-46.12
246.04	-2.43
246.42	-31.55
246.80	50.97
247.19	-53.40
247.57	-63.11
247.95	-50.97
248.34	-123.79
248.72	-75.24
249.10	-118.93
249.49	-65.53
249.87	53.40
250.25	-104.37
250.63	7.28
251.02	-19.42
251.40	-63.11
251.78	75.24
252.16	14.56
252.55	-33.98
252.93	9.71
253.31	-80.10
253.69	-26.70
254.08	-104.37
254.46	41.26
254.84	-43.69
255.22	-72.82
255.60	7.28
255.99	118.93
256.37	-24.27
256.75	12.14
257.13	-2.43
257.51	48.54
257.90	92.23
258.28	-70.39
258.66	-38.84
259.04	29.13
259.42	-43.69
259.81	-60.68
260.19	-72.82
260.57	72.82
260.95	9.71
261.33	12.14
261.71	-60.68
262.09	-21.84
262.48	84.95
262.86	29.13
263.24	-16.99
263.62	-36.41
264.00	-48.54
264.38	-75.24
264.76	-67.96
265.14	38.84
265.53	0.00
265.91	4.85
266.29	2.43
266.67	-77.67
267.05	48.54
267.43	63.11
267.81	-104.37
268.19	31.55
268.57	4.85
268.95	-29.13
269.33	55.83
269.71	-104.37
270.09	-31.55
270.47	26.70
270.85	19.42
271.23	12.14
271.62	-77.67
272.00	-43.69
272.38	-87.38
272.76	-43.69
273.14	-2.43
273.52	-145.63
273.90	26.70
274.28	-82.53
274.66	-12.14
275.04	116.51
275.42	43.69
275.80	55.83
276.18	-84.95
276.55	65.53
276.93	-155.34
277.31	7.28
277.69	-58.25
278.07	75.24
278.45	-123.79
278.83	-33.98
279.21	16.99
279.59	-72.82
279.97	50.97
280.35	4.85
280.73	70.39
281.11	14.56
281.49	-36.41
281.87	-29.13
282.25	75.24
282.62	16.99
283.00	-21.84
283.38	-46.12
283.76	48.54
284.14	-101.94
284.52	7.28
284.90	55.83
285.28	-21.84
285.65	-87.38
286.03	12.14
286.41	36.41
286.79	4.85
287.17	-33.98
287.55	-43.69
287.93	-109.22
288.30	-7.28
288.68	-12.14
289.06	114.08
289.44	16.99
289.82	21.84
290.20	-16.99
290.57	-36.41
290.95	38.84
291.33	-60.68
291.71	-14.56
292.09	-60.68
292.46	-70.39
292.84	48.54
293.22	-21.84
293.60	26.70
293.97	50.97
294.35	-53.40
294.73	63.11
295.11	-14.56
295.48	-31.55
295.86	-70.39
296.24	31.55
296.62	-31.55
296.99	16.99
297.37	72.82
297.75	-48.54
298.13	63.11
298.50	-33.98
298.88	9.71
299.26	-60.68
299.63	-58.25
300.01	-109.22
300.39	21.85
300.77	-24.27
301.14	-101.94
301.52	-14.56
301.90	53.40
302.27	75.24
302.65	-26.70
303.03	26.70
303.40	109.23
303.78	-36.41
304.16	-12.14
304.53	-26.70
304.91	-38.84
305.28	48.54
305.66	50.97
306.04	-26.70
306.41	-75.24
306.79	-77.67
307.17	-67.96
307.54	-133.50
307.92	-14.56
308.29	-36.41
308.67	-4.85
309.05	33.98
309.42	-60.68
309.80	12.14
310.17	-29.13
310.55	-60.68
310.92	-94.66
311.30	-80.10
311.68	-63.11
312.05	-97.09
312.43	4.85
312.80	-43.69
313.18	-7.28
313.55	16.99
313.93	9.71
314.30	70.39
314.68	-94.66
315.05	-12.14
315.43	2.43
315.80	77.67
316.18	-101.94
316.55	21.84
316.93	55.83
317.30	-87.38
317.68	-43.69
318.05	-41.26
318.43	-43.69
318.80	-92.23
319.18	-87.38
319.55	7.28
319.93	50.97
320.30	-55.83
320.68	7.28
321.05	29.13
321.43	-36.41
321.80	-70.39
322.17	-53.40
322.55	-4.85
322.92	-67.96
323.30	-70.39
323.67	-38.84
324.05	12.14
324.42	60.68
324.79	48.54
325.17	-31.55
325.54	-33.98
325.92	7.28
326.29	-72.82
326.66	-43.69
327.04	-38.84
327.41	7.28
327.78	12.14
328.16	-94.66
328.53	41.26
328.91	-121.36
329.28	7.28
329.65	-72.82
330.03	-9.71
330.40	53.40
330.77	-26.70
331.15	21.85
331.52	-12.14
331.89	53.40
332.27	-21.84
332.64	72.82
333.01	9.71
333.38	92.23
333.76	-84.95
334.13	7.28
334.50	-21.84
334.88	29.13
335.25	-16.99
335.62	26.70
335.99	-123.79
336.37	75.24
336.74	-24.27
337.11	-16.99
337.48	4.85
337.86	118.93
338.23	-14.56
338.60	-36.41
338.97	2.43
339.35	-7.28
339.72	-133.50
340.09	2.43
340.46	63.11
340.84	-114.08
341.21	-24.27
341.58	-16.99
341.95	65.53
342.32	7.28
342.70	-46.12
343.07	-94.66
343.44	-67.96
343.81	169.91
344.18	60.68
344.55	-4.85
344.93	206.31
345.30	87.38
345.67	89.81
346.04	279.13
346.41	254.86
346.78	250.00
347.15	466.03
347.53	555.83
347.90	694.19
348.27	757.29
348.64	832.54
349.01	873.80
349.38	934.48
349.75	890.79
350.12	752.44
350.49	803.41
350.87	640.79
351.24	635.93
351.61	623.80
351.98	468.45
352.35	524.28
352.72	276.70
353.09	245.15
353.46	303.40
353.83	220.88
354.20	131.07
354.57	148.06
354.94	48.54
355.31	84.95
355.68	-24.27
356.05	-12.14
356.42	48.54
356.79	135.92
357.16	-111.65
357.53	80.10
357.90	-58.25
358.27	53.40
358.64	38.84
359.01	133.50
359.38	0.00
359.75	-33.98
360.12	2.43
360.49	-63.11
360.86	31.55
361.23	24.27
361.60	-16.99
361.97	-31.55
362.34	-50.97
362.71	-101.94
363.08	-36.41
363.45	-26.70
363.82	-16.99
364.19	-84.95
364.56	36.41
364.93	-24.27
365.30	-60.68
365.66	41.26
366.03	-29.13
366.40	-9.71
366.77	-128.64
367.14	-21.84
367.51	-33.98
367.88	-72.82
368.25	-9.71
368.62	-4.85
368.98	-2.43
369.35	-7.28
369.72	-99.52
370.09	111.65
370.46	55.83
370.83	-26.70
371.20	-82.53
371.56	-38.84
371.93	-16.99
372.30	-38.84
372.67	-33.98
373.04	-31.55
373.41	-43.69
373.77	-9.71
374.14	-53.40
374.51	2.43
374.88	-58.25
375.25	41.26
375.61	-111.65
375.98	-50.97
376.35	2.43
376.72	19.42
377.08	-109.22
377.45	-12.14
377.82	21.85
378.19	31.55
378.55	58.25
378.92	-87.38
379.29	-29.13
379.66	-55.83
380.02	-77.67
380.39	63.11
380.76	-4.85
381.13	-58.25
381.49	-53.40
381.86	-101.94
382.23	16.99
382.59	-60.68
382.96	-19.42
383.33	-133.50
383.70	-55.83
384.06	-36.41
384.43	-19.42
384.80	-4.85
385.16	33.98
385.53	111.65
385.90	-46.12
386.26	0.00
386.63	-55.83
387.00	-128.64
387.36	-7.28
387.73	-70.39
388.09	-9.71
388.46	-4.85
388.83	31.55
389.19	-67.96
389.56	-48.54
389.93	-58.25
390.29	41.26
390.66	-7.28
391.02	-72.82
391.39	72.82
391.75	38.84
392.12	12.14
392.49	-55.83
392.85	-26.70
393.22	-46.12
393.58	-92.23
393.95	-26.70
394.31	-24.27
394.68	-31.55
395.05	29.13
395.41	-2.43
395.78	0.00
396.14	-36.41
396.51	-12.14
396.87	-24.27
397.24	38.84
397.60	53.40
397.97	-36.41
398.33	7.28
398.70	70.39
399.06	-43.69
399.43	-128.64
399.79	-99.52
400.16	2.43
400.52	-138.35
400.89	-2.43
401.25	-82.53
401.62	7.28
401.98	121.36
402.35	-128.64
402.71	-7.28
403.07	-80.10
403.44	80.10
403.80	21.84
404.17	65.53
404.53	33.98
404.90	53.40
405.26	41.26
405.62	-46.12
405.99	36.41
406.35	-70.39
406.72	-99.52
407.08	-36.41
407.44	33.98
407.81	-48.54
408.17	50.97
408.54	-4.85
408.90	-77.67
409.26	60.68
409.63	-67.96
409.99	-21.85
410.35	7.28
410.72	14.56
411.08	7.28
411.44	-19.42
411.81	-43.69
412.17	4.85
412.53	70.39
412.90	-55.83
413.26	-77.67
413.62	-123.79
413.99	65.54
414.35	67.96
414.71	58.25
415.08	-58.25
415.44	-12.14
415.80	-84.95
416.16	-43.69
416.53	-38.84
416.89	-29.13
417.25	19.42
417.61	-4.85
417.98	-2.43
418.34	-92.23
418.70	-82.53
419.06	92.23
419.43	-55.83
419.79	67.96
420.15	-12.14
420.51	-60.68
420.88	-55.83
421.24	-4.85
421.60	-43.69
421.96	-33.98
422.32	-29.13
422.69	-21.84
423.05	2.43
423.41	-7.28
423.77	7.28
424.13	63.11
424.50	16.99
424.86	-89.81
425.22	63.11
425.58	63.11
425.94	12.14
426.30	-72.82
426.67	-9.71
427.03	36.41
427.39	26.70
427.75	-4.85
428.11	-99.52
428.47	67.96
428.83	-31.55
429.19	-16.99
429.56	-41.26
429.92	-70.39
430.28	-140.78
430.64	16.99
431.00	-12.14
431.36	60.68
431.72	-63.11
432.08	-21.84
432.44	9.71
432.80	48.54
433.16	-116.51
433.52	7.28
433.89	-29.13
434.25	9.71
434.61	-24.27
434.97	101.94
435.33	41.26
435.69	-33.98
436.05	-9.71
436.41	-16.99
436.77	-50.97
437.13	9.71
437.49	-55.83
437.85	4.85
438.21	-12.14
438.57	43.69
438.93	-106.80
439.29	65.53
439.65	-31.55
440.01	29.13
440.37	-41.26
440.73	-111.65
441.09	-55.83
441.45	-75.24
441.81	-9.71
442.16	-77.67
442.52	118.93
442.88	-14.56
443.24	-70.39
443.60	-67.96
443.96	-101.94
444.32	-4.85
444.68	2.43
445.04	19.42
445.40	-87.38
445.76	26.70
446.12	-26.70
446.48	21.84
446.83	-33.98
447.19	131.07
447.55	-21.84
447.91	-116.51
448.27	14.56
448.63	84.95
448.99	-36.41
449.34	33.98
449.70	-82.53
450.06	-55.83
450.42	-24.27
450.78	-53.40
451.14	-12.14
451.50	70.39
451.85	-97.09
452.21	16.99
452.57	50.97
452.93	-43.69
453.29	-131.07
453.64	-9.71
454.00	-50.97
454.36	-16.99
454.72	7.28
455.08	21.85
455.43	29.13
455.79	53.40
456.15	38.84
456.51	9.71
456.86	-46.12
457.22	0.00
457.58	-16.99
457.94	-67.96
458.29	9.71
458.65	-77.67
459.01	9.71
459.37	-55.83
459.72	-14.56
460.08	4.85
460.44	53.40
460.79	-72.82
461.15	7.28
461.51	36.41
461.86	55.83
462.22	70.39
462.58	80.10
462.94	43.69
463.29	-118.93
463.65	26.70
464.01	2.43
464.36	-19.42
464.72	-26.70
465.08	58.25
465.43	-114.08
465.79	70.39
466.14	0.00
466.50	21.85
466.86	77.67
467.21	-41.26
467.57	-82.53
467.93	-53.40
468.28	-16.99
468.64	38.84
468.99	16.99
469.35	7.28
469.71	-133.50
470.06	72.82
470.42	-24.27
470.77	-16.99
471.13	-131.07
471.48	-63.11
471.84	16.99
472.20	-84.95
472.55	58.25
472.91	-41.26
473.26	-2.43
473.62	121.36
473.97	-87.38
474.33	48.54
474.68	-41.26
475.04	-41.26
475.39	-84.95
475.75	-63.11
476.10	-53.40
476.46	-24.27
476.81	60.68
477.17	-77.67
477.52	-70.39
477.88	21.84
478.23	-26.70
478.59	106.80
478.94	-58.25
479.30	-19.42
479.65	-97.09
480.01	-186.90
480.36	-43.69
480.72	43.69
481.07	24.27
481.42	-63.11
481.78	-65.53
482.13	-12.14
482.49	-60.68
482.84	50.97
483.20	-75.24
483.55	16.99
483.90	-26.70
484.26	-31.55
484.61	-26.70
484.96	-63.11
485.32	21.85
485.67	-48.54
486.03	-167.48
486.38	26.70
486.73	-16.99
487.09	31.55
487.44	38.84
487.79	-12.14
488.15	-14.56
488.50	43.69
488.85	-16.99
489.21	-58.25
489.56	50.97
489.91	-36.41
490.27	-55.83
490.62	-58.25
490.97	-14.56
491.33	67.96
491.68	24.27
492.03	63.11
492.39	48.54
492.74	-36.41
493.09	-97.09
493.44	21.84
493.80	-2.43
494.15	-14.56
494.50	2.43
494.85	-9.71
495.21	-26.70
495.56	-24.27
495.91	-104.37
496.26	-101.94
496.62	14.56
496.97	4.85
497.32	46.12
497.67	-48.54
498.03	-31.55
498.38	-104.37
498.73	-21.84
499.08	-36.41
499.43	-140.78
499.79	-87.38
500.14	19.42
500.49	-7.28
500.84	-63.11
501.19	-12.14
501.54	43.69
501.90	4.85
502.25	-4.85
502.60	-65.53
502.95	-21.84
503.30	46.12
503.65	16.99
504.00	41.26
504.36	97.09
504.71	-21.84
505.06	-2.43
505.41	-24.27
505.76	-16.99
506.11	-14.56
506.46	7.28
506.81	29.13
507.16	-55.83
507.52	16.99
507.87	-21.84
508.22	-36.41
508.57	24.27
508.92	-94.66
509.27	7.28
509.62	-58.25
509.97	-50.97
510.32	-148.06
510.67	-118.93
511.02	65.53
511.37	-19.42
511.72	9.71
512.07	-50.97
512.42	82.53
512.77	-24.27
513.12	-24.27
513.47	0.00
513.82	-65.53
514.17	21.84
514.52	55.83
514.87	36.41
515.22	-19.42
515.57	-75.24
515.92	19.42
516.27	65.54
516.62	33.98
516.97	-116.51
517.32	-24.27
517.67	4.85
518.02	-38.84
518.37	-31.55
518.72	9.71
519.07	21.84
519.42	-84.95
519.77	-14.56
520.12	-24.27
520.46	-24.27
520.81	-7.28
521.16	33.98
521.51	-70.39
521.86	-12.14
522.21	-65.54
522.56	63.11
522.91	21.85
523.26	4.85
523.60	-148.06
523.95	26.70
524.30	94.66
524.65	48.54
525.00	-50.97
525.35	-126.22
525.70	-38.84
526.04	7.28
526.39	-72.82
526.74	41.26
527.09	-38.84
527.44	-4.85
527.78	-2.43
528.13	-133.50
528.48	-16.99
528.83	-38.84
529.18	-41.26
529.52	-43.69
529.87	-21.84
530.22	89.81
530.57	-33.98
530.92	55.83
531.26	-104.37
531.61	-67.96
531.96	-55.83
532.31	41.26
532.65	-101.94
533.00	-12.14
533.35	-97.09
533.70	-29.13
534.04	33.98
534.39	36.41
534.74	-55.83
535.08	9.71
535.43	4.85
535.78	46.12
536.13	31.55
536.47	16.99
536.82	48.54
537.17	46.12
537.51	-31.55
537.86	-77.67
538.21	19.42
538.55	-58.25
538.90	-67.96
539.25	4.85
539.59	-48.54
539.94	53.40
540.29	-101.94
540.63	-72.82
540.98	-26.70
541.32	-14.56
541.67	-65.54
542.02	-41.26
542.36	50.97
542.71	-72.82
543.05	-26.70
543.40	-9.71
543.75	16.99
544.09	-84.95
544.44	-7.28
544.78	-77.67
545.13	-9.71
545.48	29.13
545.82	-12.14
546.17	7.28
546.51	19.42
546.86	-33.98
547.20	38.84
547.55	-53.40
547.89	-97.09
548.24	-121.36
548.58	-16.99
548.93	116.51
549.28	-41.26
549.62	-101.94
549.97	-26.70
550.31	-26.70
550.66	-63.11
551.00	-12.14
551.34	-12.14
551.69	33.98
552.03	-41.26
552.38	60.68
552.72	80.10
553.07	-26.70
553.41	80.10
553.76	7.28
554.10	19.42
554.45	-21.85
554.79	-7.28
555.14	-4.85
555.48	14.56
555.82	72.82
556.17	-46.12
556.51	-126.22
556.86	-89.81
557.20	46.12
557.54	55.83
557.89	-48.54
558.23	-155.34
558.58	-4.85
558.92	-58.25
559.26	-29.13
559.61	67.96
559.95	4.85
560.29	12.14
560.64	-19.42
560.98	-116.51
561.33	-14.56
561.67	-21.85
562.01	-4.85
562.36	-29.13
562.70	43.69
563.04	80.10
563.39	-31.55
563.73	-21.85
564.07	-92.23
564.41	-46.12
564.76	87.38
565.10	75.24
565.44	-65.53
565.79	-21.84
566.13	-46.12
566.47	0.00
566.81	-19.42
567.16	-111.65
567.50	63.11
567.84	-50.97
568.18	-38.84
568.53	-72.82
568.87	-31.55
569.21	41.26
569.55	53.40
569.90	24.27
570.24	-80.10
570.58	-31.55
570.92	12.14
571.27	-50.97
571.61	104.37
571.95	-97.09
572.29	89.81
572.63	-16.99
572.97	-43.69
573.32	12.14
573.66	4.85
574.00	-36.41
574.34	21.85
574.68	-50.97
575.02	82.53
575.37	50.97
575.71	-33.98
576.05	-9.71
576.39	53.40
576.73	-31.55
577.07	9.71
577.41	7.28
577.76	24.27
578.10	-55.83
578.44	-7.28
578.78	-9.71
579.12	0.00
579.46	36.41
579.80	24.27
580.14	-38.84
580.48	92.23
580.82	24.27
581.16	46.12
581.51	-26.70
581.85	-29.13
582.19	80.10
582.53	21.84
582.87	-135.92
583.21	-21.85
583.55	24.27
583.89	2.43
584.23	-21.85
584.57	-19.42
584.91	-50.97
585.25	-7.28
585.59	-26.70
585.93	-19.42
586.27	-43.69
586.61	31.55
586.95	33.98
587.29	43.69
587.63	38.84
587.97	-152.91
588.31	77.67
588.65	21.84
588.99	46.12
589.33	-63.11
589.67	-43.69
590.01	-116.51
590.34	-19.42
590.68	-9.71
591.02	-21.85
591.36	-36.41
591.70	-82.53
592.04	-4.85
592.38	-87.38
592.72	38.84
593.06	-60.68
593.40	60.68
593.74	-41.26
594.07	106.80
594.41	-24.27
594.75	-87.38
595.09	65.53
595.43	-41.26
595.77	-63.11
596.11	-60.68
596.44	-29.13
596.78	-43.69
597.12	-70.39
597.46	-31.55
597.80	-33.98
598.14	4.85
598.47	26.70
598.81	-7.28
599.15	-101.94
599.49	-12.14
599.83	16.99
600.17	-33.98
600.50	7.28
600.84	-31.55
601.18	41.26
601.52	7.28
601.85	31.55
602.19	36.41
602.53	-12.14
602.87	-41.26
603.20	53.40
603.54	67.96
603.88	80.10
604.22	-29.13
604.55	-33.98
604.89	-26.70
605.23	-87.38
605.57	104.37
605.90	87.38
606.24	2.43
606.58	58.25
606.91	53.40
607.25	19.42
607.59	-126.22
607.92	77.67
608.26	-38.84
608.60	7.28
608.94	111.65
609.27	140.78
609.61	19.42
609.94	126.22
610.28	-48.54
610.62	46.12
610.95	46.12
611.29	-4.85
611.63	-140.78
611.96	63.11
612.30	63.11
612.64	0.00
612.97	-12.14
613.31	-7.28
613.64	-31.55
613.98	2.43
614.32	4.85
614.65	46.12
614.99	58.25
615.32	111.65
615.66	9.71
615.99	-70.39
616.33	-82.53
616.67	169.91
617.00	70.39
617.34	33.98
617.67	43.69
618.01	12.14
618.34	46.12
618.68	160.20
619.01	118.93
619.35	143.21
619.68	38.84
620.02	140.78
620.35	114.08
620.69	31.55
621.02	75.24
621.36	101.94
621.69	21.84
622.03	0.00
622.36	46.12
622.70	38.84
623.03	2.43
623.37	167.48
623.70	48.54
624.04	92.23
624.37	87.38
624.70	87.38
625.04	174.76
625.37	9.71
625.71	75.24
626.04	58.25
626.38	92.23
626.71	101.94
627.04	43.69
627.38	84.95
627.71	101.94
628.05	182.04
628.38	186.90
628.71	50.97
629.05	77.67
629.38	55.83
629.71	31.55
630.05	109.22
630.38	109.22
630.72	0.00
631.05	126.22
631.38	60.68
631.72	104.37
632.05	87.38
632.38	43.69
632.72	77.67
633.05	75.24
633.38	38.84
633.71	111.65
634.05	94.66
634.38	14.56
634.71	16.99
635.05	-48.54
635.38	-7.28
635.71	33.98
636.04	89.81
636.38	-70.39
636.71	14.56
637.04	19.42
637.38	31.55
637.71	9.71
638.04	55.83
638.37	-26.70
638.70	24.27
639.04	31.55
639.37	-9.71
639.70	-31.55
640.03	80.10
640.37	26.70
640.70	101.94
641.03	-4.85
641.36	24.27
641.69	33.98
642.03	-50.97
642.36	-2.43
642.69	7.28
643.02	21.84
643.35	70.39
643.68	63.11
644.02	19.42
644.35	70.39
644.68	19.42
645.01	150.49
645.34	46.12
645.67	106.80
646.00	-4.85
646.33	-14.56
646.67	70.39
647.00	114.08
647.33	29.13
647.66	-31.55
647.99	55.83
648.32	152.91
648.65	36.41
648.98	0.00
649.31	31.55
649.64	75.24
649.97	182.04
650.31	87.38
650.64	135.92
650.97	2.43
651.30	70.39
651.63	87.38
651.96	111.65
652.29	92.23
652.62	-53.40
652.95	155.34
653.28	116.51
653.61	31.55
653.94	109.22
654.27	99.52
654.60	131.07
654.93	116.51
655.26	145.63
655.59	65.53
655.92	92.23
656.25	65.53
656.58	9.71
656.91	-53.40
657.24	75.24
657.57	104.37
657.90	2.43
658.22	116.51
658.55	46.12
658.88	67.96
659.21	-36.41
659.54	109.23
659.87	-33.98
660.20	189.32
660.53	101.94
660.86	114.08
661.19	16.99
661.52	46.12
661.85	152.91
662.17	104.37
662.50	41.26
662.83	-16.99
663.16	24.27
663.49	182.04
663.82	41.26
664.15	116.51
664.47	63.11
664.80	89.81
665.13	80.10
665.46	50.97
665.79	101.94
666.12	75.24
666.44	152.91
666.77	72.82
667.10	140.78
667.43	123.79
667.76	104.37
668.08	157.77
668.41	235.44
668.74	177.19
669.07	213.60
669.40	271.85
669.72	291.27
670.05	266.99
670.38	216.02
670.71	315.54
671.03	325.25
671.36	393.21
671.69	288.84
672.02	378.65
672.34	449.04
672.67	429.62
673.00	682.05
673.32	645.64
673.65	733.02
673.98	883.51
674.31	958.75
674.63	1131.09
674.96	1167.49
675.29	1419.93
675.61	1553.42
675.94	1859.25
676.27	1847.12
676.59	2167.51
676.92	2347.12
677.25	2655.38
677.57	2963.64
677.90	3140.83
678.23	3602.00
678.55	3793.75
678.88	4167.54
679.20	4694.25
679.53	5269.50
679.86	5538.92
680.18	5585.04
680.51	6356.90
680.83	6784.09
681.16	7347.20
681.49	7818.08
681.81	8504.99
682.14	9094.80
682.46	9946.76
682.79	10907.94
683.11	11900.67
683.44	12412.81
683.77	13570.60
684.09	14420.13
684.42	15648.30
684.74	16689.58
685.07	18337.66
685.39	19616.81
685.72	20209.05
686.04	21672.67
686.37	23451.82
686.69	24544.07
687.02	26027.10
687.34	28197.04
687.67	28641.22
687.99	29536.87
688.32	29932.50
688.64	32049.04
688.97	33022.36
689.29	33908.29
689.62	35959.30
689.94	36364.64
690.27	37520.00
690.59	40369.56
690.91	42216.68
691.24	42573.48
691.56	44163.31
691.89	45959.45
692.21	47748.32
692.54	48143.95
692.86	50093.01
693.18	51573.62
693.51	52631.89
693.83	51646.43
694.16	53369.76
694.48	55144.06
694.80	55709.60
695.13	55918.35
695.45	56804.28
695.78	57496.04
696.10	57384.39
696.42	57743.62
696.75	58760.62
697.07	57838.28
697.39	57030.01
697.72	57013.02
698.04	57207.20
698.36	55102.80
698.69	54809.10
699.01	55986.31
699.33	55670.77
699.66	55136.78
699.98	54799.40
700.30	55185.32
700.62	54925.61
700.95	53680.45
701.27	53340.64
701.59	52430.43
701.92	51219.24
702.24	50384.28
702.56	50889.14
702.88	49719.22
703.21	47447.34
703.53	44663.32
703.85	43609.90
704.17	41886.57
704.50	40180.24
704.82	37524.86
705.14	37646.22
705.46	34238.40
705.78	31650.98
706.11	29803.86
706.43	28471.32
706.75	26177.59
707.07	25163.01
707.39	23408.13
707.72	21536.74
708.04	19692.05
708.36	18573.10
708.68	17408.04
709.00	16111.90
709.32	14849.75
709.65	13963.81
709.97	12781.75
710.29	12073.00
710.61	10827.84
710.93	9905.49
711.25	9143.35
711.57	8143.33
711.90	7502.54
712.22	6691.85
712.54	5970.97
712.86	5174.84
713.18	4453.95
713.50	4097.15
713.82	3575.30
714.14	3218.50
714.46	2917.52
714.78	2456.35
715.10	2344.70
715.42	1825.27
715.75	1652.94
716.07	1463.61
716.39	1237.88
716.71	1070.41
717.03	873.80
717.35	757.29
717.67	747.58
717.99	468.45
718.31	487.87
718.63	398.06
718.95	320.39
719.27	199.03
719.59	143.21
719.91	172.33
720.23	121.36
720.55	29.13
720.87	118.93
721.19	143.21
721.51	-53.40
721.83	12.14
722.15	116.51
722.47	140.78
722.78	31.55
723.10	31.55
723.42	-24.27
723.74	14.56
724.06	109.22
724.38	92.23
724.70	50.97
725.02	-2.43
725.34	16.99
725.66	48.54
725.98	65.53
726.30	55.83
726.61	148.06
726.93	50.97
727.25	87.38
727.57	123.79
727.89	77.67
728.21	293.69
728.53	228.16
728.84	29.13
729.16	89.81
729.48	67.96
729.80	58.25
730.12	65.54
730.44	165.05
730.75	41.26
731.07	14.56
731.39	29.13
731.71	60.68
732.03	-53.40
732.34	60.68
732.66	-41.26
732.98	38.84
733.30	101.94
733.62	16.99
733.93	140.78
734.25	84.95
734.57	0.00
734.89	55.83
735.20	-16.99
735.52	41.26
735.84	77.67
736.16	72.82
736.47	63.11
736.79	77.67
737.11	-48.54
737.42	-29.13
737.74	-16.99
738.06	94.66
738.38	0.00
738.69	-14.56
739.01	58.25
739.33	-31.55
739.64	-14.56
739.96	14.56
740.28	-104.37
740.59	0.00
740.91	33.98
741.23	36.41
741.54	-46.12
741.86	41.26
742.17	-9.71
742.49	-21.84
742.81	-75.24
743.12	-55.83
743.44	7.28
743.76	-38.84
744.07	140.78
744.39	72.82
744.70	-26.70
745.02	80.10
745.34	0.00
745.65	50.97
745.97	21.84
746.28	-31.55
746.60	58.25
746.91	-92.23
747.23	121.36
747.55	-43.69
747.86	135.92
748.18	106.80
748.49	31.55
748.81	84.95
749.12	-65.53
749.44	4.85
749.75	14.56
750.07	-99.52
750.38	14.56
750.70	-60.68
751.01	16.99
751.33	16.99
751.64	-2.43
751.96	123.79
752.27	14.56
752.59	33.98
752.90	-97.09
753.22	41.26
753.53	36.41
753.84	21.85
754.16	-26.70
754.47	-82.53
754.79	-92.23
755.10	14.56
755.42	-50.97
755.73	-21.85
756.04	75.24
756.36	-60.68
756.67	-21.84
756.99	29.13
757.30	-9.71
757.61	7.28
757.93	-14.56
758.24	-12.14
758.55	4.85
758.87	43.69
759.18	50.97
759.50	104.37
759.81	26.70
760.12	16.99
760.44	7.28
760.75	-26.70
761.06	-4.85
761.38	-12.14
761.69	-36.41
762.00	-7.28
762.32	-31.55
762.63	36.41
762.94	-41.26
763.25	-48.54
763.57	43.69
763.88	-75.24
764.19	-16.99
764.51	87.38
764.82	33.98
765.13	12.14
765.44	-12.14
765.76	-58.25
766.07	-58.25
766.38	75.24
766.69	-99.52
767.01	29.13
767.32	33.98
767.63	-19.42
767.94	7.28
768.25	48.54
768.57	72.82
768.88	-65.53
769.19	67.96
769.50	-43.69
769.81	-9.71
770.13	55.83
770.44	-70.39
770.75	4.85
771.06	-75.24
771.37	-63.11
771.68	-2.43
772.00	63.11
772.31	7.28
772.62	33.98
772.93	-12.14
773.24	-53.40
773.55	-12.14
773.86	0.00
774.17	-41.26
774.49	89.81
774.80	-36.41
775.11	63.11
775.42	92.23
775.73	-14.56
776.04	77.67
776.35	0.00
776.66	46.12
776.97	84.95
777.28	41.26
777.59	-131.07
777.90	-33.98
778.21	94.66
778.52	-16.99
778.83	41.26
779.15	-70.39
779.46	-94.66
779.77	-118.93
780.08	-50.97
780.39	12.14
780.70	7.28
781.01	7.28
781.32	-67.96
781.63	-36.41
781.94	123.79
782.25	84.95
782.56	26.70
782.86	24.27
783.17	-33.98
783.48	-133.50
783.79	16.99
784.10	-21.85
784.41	-31.55
784.72	50.97
785.03	-48.54
785.34	-75.24
785.65	-50.97
785.96	-29.13
786.27	-9.71
786.58	4.85
786.89	-97.09
787.19	38.84
787.50	14.56
787.81	38.84
788.12	-109.23
788.43	-72.82
788.74	19.42
789.05	-26.70
789.36	14.56
789.66	-31.55
789.97	-60.68
790.28	-33.98
790.59	26.70
790.90	-41.26
791.21	-29.13
791.52	33.98
791.82	-16.99
792.13	19.42
792.44	-48.54
792.75	77.67
793.06	-16.99
793.36	-114.08
793.67	0.00
793.98	9.71
794.29	-19.42
794.59	-48.54
794.90	-99.52
795.21	-67.96
795.52	48.54
795.82	0.00
796.13	-48.54
796.44	133.50
796.75	-33.98
797.05	38.84
797.36	0.00
797.67	-58.25
797.98	-4.85
798.28	-65.54
798.59	63.11
798.90	-48.54
799.20	24.27
799.51	-60.68
799.82	-138.35
800.12	65.54
800.43	-58.25
800.74	41.26
801.04	-41.26
801.35	-58.25
801.66	-99.52
801.96	-48.54
802.27	-9.71
802.58	-114.08
802.88	9.71
803.19	-2.43
803.50	-131.07
803.80	-87.38
804.11	-12.14
804.41	-72.82
804.72	14.56
805.03	-55.83
805.33	-82.53
805.64	33.98
805.94	-26.70
806.25	-36.41
806.56	-118.93
806.86	-41.26
807.17	31.55
807.47	9.71
807.78	29.13
808.08	-77.67
808.39	33.98
808.69	-80.10
809.00	38.84
809.30	-67.96
809.61	29.13
809.91	36.41
810.22	-26.70
810.52	-29.13
810.83	0.00
811.13	29.13
811.44	-14.56
811.74	24.27
812.05	-38.84
812.35	29.13
812.66	-4.85
812.96	-21.84
813.27	-50.97
813.57	-145.63
813.88	-43.69
814.18	31.55
814.49	-50.97
814.79	-89.81
815.09	4.85
815.40	114.08
815.70	9.71
816.01	-43.69
816.31	50.97
816.61	-99.52
816.92	-50.97
817.22	19.42
817.53	-31.55
817.83	26.70
818.13	-111.65
818.44	-63.11
818.74	9.71
819.04	92.23
819.35	48.54
819.65	-12.14
819.95	-50.97
820.26	-72.82
820.56	16.99
820.86	43.69
821.17	-46.12
821.47	-60.68
821.77	-16.99
822.08	43.69
822.38	-36.41
822.68	135.92
822.99	-9.71
823.29	-36.41
823.59	-2.43
823.89	12.14
824.20	-97.09
824.50	-9.71
824.80	-72.82
825.10	80.10
825.41	-65.54
825.71	9.71
826.01	-92.23
826.31	-7.28
826.62	-80.10
826.92	-4.85
827.22	-53.40
827.52	41.26
827.82	-50.97
828.13	58.25
828.43	-41.26
828.73	-104.37
829.03	24.27
829.33	2.43
829.64	4.85
829.94	-72.82
830.24	-70.39
830.54	-21.85
830.84	-55.83
831.14	-50.97
831.45	7.28
831.75	-46.12
832.05	-94.66
832.35	-72.82
832.65	-7.28
832.95	-24.27
833.25	-133.50
833.55	-58.25
833.85	-7.28
834.16	-38.84
834.46	26.70
834.76	-72.82
835.06	-38.84
835.36	-126.22
835.66	-82.53
835.96	-24.27
836.26	-80.10
836.56	-38.84
836.86	58.25
837.16	-16.99
837.46	-75.24
837.76	-106.80
838.06	-53.40
838.36	33.98
838.66	-33.98
838.96	16.99
839.26	-43.69
839.56	21.85
839.86	12.14
840.16	-65.53
840.46	-7.28
840.76	182.04
841.06	-12.14
841.36	-36.41
841.66	-58.25
841.96	50.97
842.26	-97.09
842.56	-4.85
842.86	-16.99
843.16	-24.27
843.46	-53.40
843.76	-271.85
844.06	26.70
844.36	9.71
844.66	-26.70
844.95	-84.95
845.25	-33.98
845.55	-128.64
845.85	19.42
846.15	46.12
846.45	0.00
846.75	-84.95
847.05	29.13
847.35	-101.94
847.64	58.25
847.94	-29.13
848.24	36.41
848.54	-106.80
848.84	-60.68
849.14	-24.27
849.43	-67.96
849.73	-43.69
850.03	-67.96
850.33	75.24
850.63	65.53
850.92	14.56
851.22	-60.68
851.52	-4.85
851.82	-53.40
852.12	-14.56
852.41	-75.24
852.71	31.55
853.01	-7.28
853.31	2.43
853.60	-70.39
853.90	-63.11
854.20	55.83
854.50	-77.67
854.79	-75.24
855.09	-97.09
855.39	-167.48
855.69	-50.97
855.98	-58.25
856.28	-55.83
856.58	24.27
856.87	16.99
857.17	-75.24
857.47	-82.53
857.76	-101.94
858.06	-123.79
858.36	29.13
858.65	-46.12
858.95	-12.14
859.25	-84.95
859.54	-80.10
859.84	-72.82
860.14	-14.56
860.43	2.43
860.73	67.96
861.03	-2.43
861.32	-55.83
861.62	46.12
861.91	-60.68
862.21	0.00
862.51	-29.13
862.80	-24.27
863.10	-148.06
863.39	-65.53
863.69	-33.98
863.98	-38.84
864.28	-2.43
864.58	-155.34
864.87	-24.27
865.17	2.43
865.46	-106.80
865.76	46.12
866.05	4.85
866.35	-12.14
866.64	26.70
866.94	-58.25
867.23	-24.27
867.53	-7.28
867.82	-63.11
868.12	-104.37
868.41	-4.85
868.71	26.70
869.00	50.97
869.30	-7.28
869.59	41.26
869.89	-12.14
870.18	106.80
870.48	-75.24
870.77	-53.40
871.06	-101.94
871.36	4.85
871.65	-48.54
871.95	-38.84
872.24	-41.26
872.54	-89.81
872.83	-114.08
873.12	53.40
873.42	82.53
873.71	12.14
874.01	-58.25
874.30	33.98
874.59	36.41
874.89	21.85
875.18	-12.14
875.47	67.96
875.77	-36.41
876.06	-67.96
876.35	-111.65
876.65	-31.55
876.94	48.54
877.23	-16.99
877.53	-4.85
877.82	-41.26
878.11	-24.27
878.41	-24.27
878.70	2.43
878.99	-36.41
879.29	-31.55
879.58	7.28
879.87	46.12
880.16	72.82
880.46	24.27
880.75	-58.25
881.04	4.85
881.34	-41.26
881.63	21.84
881.92	-109.23
882.21	-63.11
882.50	-16.99
882.80	24.27
883.09	-43.69
883.38	-48.54
883.67	65.53
883.97	-133.50
884.26	-89.81
884.55	-75.24
884.84	9.71
885.13	-4.85
885.43	-123.79
885.72	50.97
886.01	-116.51
886.30	-101.94
886.59	-41.26
886.88	2.43
887.17	31.55
887.47	9.71
887.76	21.85
888.05	-31.55
888.34	21.85
888.63	21.85
888.92	21.85
>>>>>End Processed Spectral Data<<<<<
