SpectraSuite Data File
++++++++++++++++++++++++++++++++++++
Date: Mon Aug 28 15:02:03 CEST 2023
User: TAMINATOR
Dark Spectrum Present: Yes
Reference Spectrum Present: No
Number of Sampled Component Spectra: 1
Spectrometers: FLMS04432
Integration Time (usec): 300000 (FLMS04432)
Spectra Averaged: 1 (FLMS04432)
Boxcar Smoothing: 0 (FLMS04432)
Correct for Electrical Dark: No (FLMS04432)
Strobe/Lamp Enabled: No (FLMS04432)
Correct for Detector Non-linearity: No (FLMS04432)
Correct for Stray Light: No (FLMS04432)
Number of Pixels in Processed Spectrum: 2048
>>>>>Begin Processed Spectral Data<<<<<
188.46	43.69
188.85	43.69
189.24	43.69
189.63	-94.66
190.02	-16.99
190.41	-7.28
190.80	-63.11
191.19	-101.94
191.58	0.00
191.96	4.85
192.35	-50.97
192.74	75.24
193.13	-31.55
193.52	-92.23
193.91	41.26
194.30	48.54
194.69	-60.68
195.08	55.83
195.47	2.43
195.86	-60.68
196.24	-14.56
196.63	7.28
197.02	80.10
197.41	-33.98
197.80	4.85
198.19	36.41
198.58	65.54
198.96	-82.53
199.35	128.64
199.74	2.43
200.13	31.55
200.52	-29.13
200.91	-128.64
201.29	36.41
201.68	12.14
202.07	46.12
202.46	0.00
202.85	31.55
203.24	84.95
203.62	0.00
204.01	84.95
204.40	4.85
204.79	-16.99
205.17	24.27
205.56	-19.42
205.95	-67.96
206.34	-80.10
206.73	43.69
207.11	143.21
207.50	0.00
207.89	-29.13
208.28	33.98
208.66	-55.83
209.05	7.28
209.44	-106.80
209.83	67.96
210.21	-21.84
210.60	38.84
210.99	31.55
211.37	-24.27
211.76	-121.36
212.15	38.84
212.54	-33.98
212.92	-2.43
213.31	-21.84
213.70	-75.24
214.08	-4.85
214.47	104.37
214.86	-16.99
215.24	-53.40
215.63	-26.70
216.02	7.28
216.40	-160.20
216.79	-55.83
217.18	21.84
217.56	-7.28
217.95	-14.56
218.33	26.70
218.72	72.82
219.11	-67.96
219.49	65.53
219.88	26.70
220.27	-24.27
220.65	-65.53
221.04	19.42
221.42	-99.52
221.81	36.41
222.20	-31.55
222.58	31.55
222.97	48.54
223.35	-29.13
223.74	48.54
224.13	-14.56
224.51	63.11
224.90	29.13
225.28	140.78
225.67	9.71
226.05	-26.70
226.44	2.43
226.82	-38.84
227.21	-26.70
227.59	-43.69
227.98	-92.23
228.36	-41.26
228.75	-43.69
229.14	-58.25
229.52	2.43
229.91	-109.22
230.29	72.82
230.68	21.84
231.06	-29.13
231.45	114.08
231.83	-60.68
232.21	-50.97
232.60	63.11
232.98	82.53
233.37	58.25
233.75	-19.42
234.14	-24.27
234.52	118.93
234.91	2.43
235.29	77.67
235.68	77.67
236.06	-80.10
236.44	-43.69
236.83	-19.42
237.21	38.84
237.60	-14.56
237.98	4.85
238.37	-26.70
238.75	-4.85
239.13	-33.98
239.52	-46.12
239.90	41.26
240.29	58.25
240.67	-55.83
241.05	2.43
241.44	-75.24
241.82	31.55
242.20	-33.98
242.59	-48.54
242.97	65.53
243.35	-31.55
243.74	24.27
244.12	-16.99
244.51	87.38
244.89	53.40
245.27	29.13
245.66	46.12
246.04	-48.54
246.42	-33.98
246.80	-84.95
247.19	-67.96
247.57	-77.67
247.95	-33.98
248.34	-75.24
248.72	-14.56
249.10	-43.69
249.49	97.09
249.87	-41.26
250.25	-58.25
250.63	2.43
251.02	-50.97
251.40	-29.13
251.78	-31.55
252.16	24.27
252.55	-38.84
252.93	21.84
253.31	38.84
253.69	55.83
254.08	-46.12
254.46	-53.40
254.84	24.27
255.22	0.00
255.60	19.42
255.99	-111.65
256.37	12.14
256.75	7.28
257.13	-43.69
257.51	0.00
257.90	-7.28
258.28	-16.99
258.66	-111.65
259.04	-123.79
259.42	-29.13
259.81	-58.25
260.19	4.85
260.57	-123.79
260.95	0.00
261.33	33.98
261.71	14.56
262.09	-26.70
262.48	-48.54
262.86	-111.65
263.24	-7.28
263.62	-60.68
264.00	-4.85
264.38	0.00
264.76	-31.55
265.14	50.97
265.53	-116.51
265.91	70.39
266.29	48.54
266.67	12.14
267.05	-53.40
267.43	97.09
267.81	2.43
268.19	121.36
268.57	26.70
268.95	21.85
269.33	-19.42
269.71	38.84
270.09	21.85
270.47	-16.99
270.85	24.27
271.23	-67.96
271.62	-14.56
272.00	36.41
272.38	-135.92
272.76	70.39
273.14	14.56
273.52	-26.70
273.90	-9.71
274.28	-29.13
274.66	-50.97
275.04	-109.22
275.42	-46.12
275.80	-38.84
276.18	4.85
276.55	19.42
276.93	-12.14
277.31	19.42
277.69	-4.85
278.07	55.83
278.45	101.94
278.83	7.28
279.21	-4.85
279.59	-7.28
279.97	128.64
280.35	41.26
280.73	97.09
281.11	12.14
281.49	-41.26
281.87	2.43
282.25	65.54
282.62	-82.53
283.00	4.85
283.38	-75.24
283.76	-89.81
284.14	21.84
284.52	-12.14
284.90	16.99
285.28	-65.53
285.65	4.85
286.03	-72.82
286.41	-58.25
286.79	-33.98
287.17	36.41
287.55	41.26
287.93	89.81
288.30	-14.56
288.68	26.70
289.06	-7.28
289.44	101.94
289.82	-29.13
290.20	-46.12
290.57	-43.69
290.95	50.97
291.33	55.83
291.71	97.09
292.09	31.55
292.46	-41.26
292.84	33.98
293.22	-38.84
293.60	-63.11
293.97	-80.10
294.35	50.97
294.73	-36.41
295.11	-58.25
295.48	41.26
295.86	50.97
296.24	-65.53
296.62	89.81
296.99	29.13
297.37	-92.23
297.75	77.67
298.13	-7.28
298.50	19.42
298.88	-9.71
299.26	36.41
299.63	-111.65
300.01	14.56
300.39	63.11
300.77	-14.56
301.14	131.07
301.52	-94.66
301.90	16.99
302.27	-36.41
302.65	2.43
303.03	-36.41
303.40	26.70
303.78	-43.69
304.16	43.69
304.53	12.14
304.91	58.25
305.28	84.95
305.66	21.84
306.04	-80.10
306.41	182.04
306.79	33.98
307.17	-9.71
307.54	19.42
307.92	-63.11
308.29	24.27
308.67	55.83
309.05	-9.71
309.42	9.71
309.80	12.14
310.17	-80.10
310.55	-104.37
310.92	-29.13
311.30	87.38
311.68	-53.40
312.05	41.26
312.43	-36.41
312.80	155.34
313.18	63.11
313.55	-50.97
313.93	-4.85
314.30	84.95
314.68	-58.25
315.05	31.55
315.43	84.95
315.80	148.06
316.18	9.71
316.55	43.69
316.93	80.10
317.30	-4.85
317.68	-14.56
318.05	-92.23
318.43	60.68
318.80	31.55
319.18	-26.70
319.55	70.39
319.93	46.12
320.30	2.43
320.68	7.28
321.05	-82.53
321.43	-36.41
321.80	0.00
322.17	24.27
322.55	-41.26
322.92	7.28
323.30	21.84
323.67	19.42
324.05	-7.28
324.42	-89.81
324.79	-26.70
325.17	24.27
325.54	14.56
325.92	-77.67
326.29	46.12
326.66	-94.66
327.04	16.99
327.41	-89.81
327.78	19.42
328.16	43.69
328.53	-29.13
328.91	19.42
329.28	-41.26
329.65	-43.69
330.03	-46.12
330.40	9.71
330.77	-106.80
331.15	-36.41
331.52	84.95
331.89	-31.55
332.27	-24.27
332.64	63.11
333.01	-94.66
333.38	-16.99
333.76	-26.70
334.13	-84.95
334.50	26.70
334.88	104.37
335.25	-12.14
335.62	4.85
335.99	-7.28
336.37	-84.95
336.74	7.28
337.11	29.13
337.48	-26.70
337.86	72.82
338.23	-31.55
338.60	-36.41
338.97	92.23
339.35	58.25
339.72	-46.12
340.09	-26.70
340.46	46.12
340.84	-16.99
341.21	-29.13
341.58	-41.26
341.95	36.41
342.32	-97.09
342.70	0.00
343.07	-160.20
343.44	82.53
343.81	-60.68
344.18	-121.36
344.55	-82.53
344.93	36.41
345.30	7.28
345.67	-33.98
346.04	26.70
346.41	60.68
346.78	43.69
347.15	38.84
347.53	36.41
347.90	38.84
348.27	-109.23
348.64	26.70
349.01	111.65
349.38	7.28
349.75	0.00
350.12	43.69
350.49	97.09
350.87	-16.99
351.24	31.55
351.61	-33.98
351.98	-55.83
352.35	29.13
352.72	67.96
353.09	48.54
353.46	99.52
353.83	87.38
354.20	0.00
354.57	92.23
354.94	-9.71
355.31	-16.99
355.68	-29.13
356.05	-24.27
356.42	109.23
356.79	14.56
357.16	92.23
357.53	-53.40
357.90	55.83
358.27	-58.25
358.64	-65.53
359.01	21.84
359.38	-2.43
359.75	14.56
360.12	-126.22
360.49	-65.54
360.86	72.82
361.23	41.26
361.60	109.23
361.97	-19.42
362.34	-48.54
362.71	46.12
363.08	77.67
363.45	-104.37
363.82	-33.98
364.19	43.69
364.56	-38.84
364.93	-14.56
365.30	97.09
365.66	-16.99
366.03	-50.97
366.40	-82.53
366.77	216.02
367.14	-29.13
367.51	-65.53
367.88	12.14
368.25	80.10
368.62	53.40
368.98	-58.25
369.35	70.39
369.72	43.69
370.09	-131.07
370.46	12.14
370.83	-33.98
371.20	9.71
371.56	2.43
371.93	-50.97
372.30	-63.11
372.67	-75.24
373.04	-67.96
373.41	43.69
373.77	-65.53
374.14	-46.12
374.51	-140.78
374.88	14.56
375.25	2.43
375.61	7.28
375.98	-48.54
376.35	84.95
376.72	46.12
377.08	46.12
377.45	0.00
377.82	-58.25
378.19	24.27
378.55	-38.84
378.92	-38.84
379.29	-63.11
379.66	-77.67
380.02	2.43
380.39	43.69
380.76	29.13
381.13	-7.28
381.49	48.54
381.86	-43.69
382.23	7.28
382.59	-58.25
382.96	-46.12
383.33	-43.69
383.70	-84.95
384.06	14.56
384.43	-4.85
384.80	0.00
385.16	65.53
385.53	16.99
385.90	99.52
386.26	-36.41
386.63	67.96
387.00	77.67
387.36	67.96
387.73	97.09
388.09	-118.93
388.46	-77.67
388.83	-38.84
389.19	4.85
389.56	33.98
389.93	-72.82
390.29	-14.56
390.66	38.84
391.02	12.14
391.39	75.24
391.75	-80.10
392.12	-55.83
392.49	67.96
392.85	-46.12
393.22	-12.14
393.58	80.10
393.95	-36.41
394.31	-33.98
394.68	-2.43
395.05	2.43
395.41	65.53
395.78	9.71
396.14	-2.43
396.51	0.00
396.87	9.71
397.24	55.83
397.60	-14.56
397.97	4.85
398.33	58.25
398.70	-14.56
399.06	41.26
399.43	2.43
399.79	36.41
400.16	-67.96
400.52	31.55
400.89	106.80
401.25	9.71
401.62	-50.97
401.98	33.98
402.35	41.26
402.71	-53.40
403.07	-58.25
403.44	-75.24
403.80	-12.14
404.17	19.42
404.53	-50.97
404.90	-48.54
405.26	43.69
405.62	-33.98
405.99	-121.36
406.35	-36.41
406.72	77.67
407.08	-191.75
407.44	104.37
407.81	-31.55
408.17	-94.66
408.54	33.98
408.90	-65.53
409.26	-9.71
409.63	-19.42
409.99	-63.11
410.35	16.99
410.72	-46.12
411.08	-33.98
411.44	38.84
411.81	41.26
412.17	48.54
412.53	24.27
412.90	-31.55
413.26	4.85
413.62	41.26
413.99	-14.56
414.35	-55.83
414.71	-4.85
415.08	41.26
415.44	-63.11
415.80	-46.12
416.16	24.27
416.53	16.99
416.89	14.56
417.25	-60.68
417.61	140.78
417.98	-50.97
418.34	138.35
418.70	-41.26
419.06	29.13
419.43	-2.43
419.79	121.36
420.15	72.82
420.51	-72.82
420.88	-14.56
421.24	33.98
421.60	7.28
421.96	-21.84
422.32	46.12
422.69	80.10
423.05	-65.53
423.41	-89.81
423.77	-84.95
424.13	-94.66
424.50	99.52
424.86	65.53
425.22	-99.52
425.58	41.26
425.94	2.43
426.30	48.54
426.67	-123.79
427.03	31.55
427.39	0.00
427.75	-21.84
428.11	-53.40
428.47	-36.41
428.83	48.54
429.19	9.71
429.56	-65.54
429.92	50.97
430.28	26.70
430.64	29.13
431.00	48.54
431.36	145.63
431.72	-58.25
432.08	0.00
432.44	63.11
432.80	-87.38
433.16	-116.51
433.52	97.09
433.89	38.84
434.25	-55.83
434.61	43.69
434.97	-179.61
435.33	-58.25
435.69	29.13
436.05	60.68
436.41	-99.52
436.77	12.14
437.13	-4.85
437.49	4.85
437.85	-2.43
438.21	2.43
438.57	-41.26
438.93	-12.14
439.29	26.70
439.65	-29.13
440.01	48.54
440.37	63.11
440.73	-38.84
441.09	58.25
441.45	24.27
441.81	-9.71
442.16	-41.26
442.52	-4.85
442.88	-4.85
443.24	-123.79
443.60	43.69
443.96	-26.70
444.32	84.95
444.68	75.24
445.04	-21.85
445.40	-21.84
445.76	-72.82
446.12	104.37
446.48	7.28
446.83	-38.84
447.19	-29.13
447.55	12.14
447.91	-94.66
448.27	-46.12
448.63	29.13
448.99	38.84
449.34	67.96
449.70	116.51
450.06	-16.99
450.42	-19.42
450.78	131.07
451.14	-58.25
451.50	58.25
451.85	65.54
452.21	-29.13
452.57	2.43
452.93	155.34
453.29	82.53
453.64	-84.95
454.00	82.53
454.36	4.85
454.72	-82.53
455.08	-84.95
455.43	101.94
455.79	-16.99
456.15	7.28
456.51	12.14
456.86	-26.70
457.22	31.55
457.58	38.84
457.94	12.14
458.29	77.67
458.65	-63.11
459.01	26.70
459.37	38.84
459.72	21.85
460.08	77.67
460.44	7.28
460.79	-46.12
461.15	-14.56
461.51	58.25
461.86	-14.56
462.22	58.25
462.58	65.54
462.94	21.85
463.29	19.42
463.65	46.12
464.01	155.34
464.36	279.13
464.72	456.32
465.08	728.17
465.43	1017.01
465.79	1490.31
466.14	2182.07
466.50	2839.85
466.86	3825.30
467.21	4835.03
467.57	6487.96
467.93	8075.37
468.28	9386.07
468.64	10995.32
468.99	12432.23
469.35	13240.50
469.71	14153.13
470.06	14073.03
470.42	14036.63
470.77	13590.02
471.13	12932.24
471.48	12039.02
471.84	10978.33
472.20	9585.10
472.55	7735.56
472.91	6602.04
473.26	5296.20
473.62	4218.51
473.97	3138.40
474.33	2390.81
474.68	1723.33
475.04	1206.33
475.39	890.79
475.75	691.76
476.10	322.82
476.46	381.07
476.81	216.02
477.17	135.92
477.52	84.95
477.88	203.89
478.23	101.94
478.59	101.94
478.94	101.94
479.30	84.95
479.65	-63.11
480.01	84.95
480.36	26.70
480.72	36.41
481.07	70.39
481.42	55.83
481.78	-16.99
482.13	41.26
482.49	-9.71
482.84	-38.84
483.20	-14.56
483.55	16.99
483.90	-63.11
484.26	106.80
484.61	53.40
484.96	-46.12
485.32	53.40
485.67	-16.99
486.03	4.85
486.38	-89.81
486.73	-24.27
487.09	123.79
487.44	0.00
487.79	123.79
488.15	19.42
488.50	-21.84
488.85	33.98
489.21	-72.82
489.56	14.56
489.91	-67.96
490.27	-26.70
490.62	41.26
490.97	7.28
491.33	-36.41
491.68	33.98
492.03	-63.11
492.39	36.41
492.74	21.85
493.09	-24.27
493.44	-16.99
493.80	50.97
494.15	70.39
494.50	109.22
494.85	36.41
495.21	26.70
495.56	16.99
495.91	46.12
496.26	26.70
496.62	-7.28
496.97	43.69
497.32	-26.70
497.67	4.85
498.03	-7.28
498.38	-2.43
498.73	16.99
499.08	9.71
499.43	-94.66
499.79	26.70
500.14	43.69
500.49	80.10
500.84	-19.42
501.19	9.71
501.54	-38.84
501.90	80.10
502.25	-87.38
502.60	48.54
502.95	-33.98
503.30	106.80
503.65	-72.82
504.00	92.23
504.36	-19.42
504.71	46.12
505.06	-24.27
505.41	-70.39
505.76	31.55
506.11	-67.96
506.46	-133.50
506.81	21.85
507.16	67.96
507.52	-24.27
507.87	-14.56
508.22	126.22
508.57	26.70
508.92	72.82
509.27	-133.50
509.62	138.35
509.97	29.13
510.32	-77.67
510.67	7.28
511.02	116.51
511.37	-24.27
511.72	-29.13
512.07	-58.25
512.42	-80.10
512.77	-67.96
513.12	-36.41
513.47	14.56
513.82	4.85
514.17	-48.54
514.52	-24.27
514.87	67.96
515.22	-16.99
515.57	65.53
515.92	48.54
516.27	-21.85
516.62	29.13
516.97	-104.37
517.32	-48.54
517.67	24.27
518.02	-60.68
518.37	-53.40
518.72	9.71
519.07	4.85
519.42	-36.41
519.77	-77.67
520.12	-7.28
520.46	-38.84
520.81	12.14
521.16	-55.83
521.51	-24.27
521.86	-70.39
522.21	29.13
522.56	43.69
522.91	75.24
523.26	26.70
523.60	-48.54
523.95	97.09
524.30	-36.41
524.65	46.12
525.00	-16.99
525.35	-4.85
525.70	-19.42
526.04	14.56
526.39	33.98
526.74	-89.81
527.09	65.53
527.44	19.42
527.78	-65.53
528.13	60.68
528.48	123.79
528.83	19.42
529.18	-63.11
529.52	0.00
529.87	7.28
530.22	19.42
530.57	-4.85
530.92	-65.54
531.26	24.27
531.61	-7.28
531.96	-14.56
532.31	41.26
532.65	46.12
533.00	-55.83
533.35	-55.83
533.70	80.10
534.04	-9.71
534.39	21.85
534.74	7.28
535.08	-4.85
535.43	-14.56
535.78	111.65
536.13	-16.99
536.47	-7.28
536.82	65.54
537.17	2.43
537.51	-2.43
537.86	4.85
538.21	33.98
538.55	-106.80
538.90	-14.56
539.25	31.55
539.59	36.41
539.94	-12.14
540.29	-38.84
540.63	7.28
540.98	-19.42
541.32	14.56
541.67	16.99
542.02	-4.85
542.36	-14.56
542.71	-72.82
543.05	-12.14
543.40	-26.70
543.75	-7.28
544.09	16.99
544.44	-75.24
544.78	-19.42
545.13	-53.40
545.48	7.28
545.82	-50.97
546.17	80.10
546.51	0.00
546.86	26.70
547.20	-36.41
547.55	7.28
547.89	36.41
548.24	-38.84
548.58	-41.26
548.93	-43.69
549.28	63.11
549.62	24.27
549.97	-29.13
550.31	50.97
550.66	-21.84
551.00	16.99
551.34	75.24
551.69	-24.27
552.03	4.85
552.38	2.43
552.72	2.43
553.07	-19.42
553.41	-89.81
553.76	84.95
554.10	26.70
554.45	-29.13
554.79	63.11
555.14	-99.52
555.48	-72.82
555.82	-75.24
556.17	4.85
556.51	84.95
556.86	-24.27
557.20	7.28
557.54	24.27
557.89	-55.83
558.23	-89.81
558.58	-31.55
558.92	-67.96
559.26	-50.97
559.61	-89.81
559.95	4.85
560.29	70.39
560.64	33.98
560.98	-38.84
561.33	-58.25
561.67	21.84
562.01	-50.97
562.36	-50.97
562.70	-43.69
563.04	-63.11
563.39	-16.99
563.73	46.12
564.07	-60.68
564.41	-123.79
564.76	-31.55
565.10	-70.39
565.44	-7.28
565.79	77.67
566.13	-50.97
566.47	84.95
566.81	19.42
567.16	-72.82
567.50	-72.82
567.84	72.82
568.18	-36.41
568.53	-33.98
568.87	-41.26
569.21	-2.43
569.55	21.84
569.90	-36.41
570.24	41.26
570.58	36.41
570.92	29.13
571.27	7.28
571.61	-12.14
571.95	-67.96
572.29	67.96
572.63	-67.96
572.97	24.27
573.32	-50.97
573.66	0.00
574.00	14.56
574.34	-9.71
574.68	-50.97
575.02	-2.43
575.37	-72.82
575.71	60.68
576.05	9.71
576.39	-7.28
576.73	-131.07
577.07	-46.12
577.41	58.25
577.76	0.00
578.10	82.53
578.44	-31.55
578.78	38.84
579.12	43.69
579.46	-77.67
579.80	-50.97
580.14	-21.85
580.48	-4.85
580.82	-41.26
581.16	0.00
581.51	-145.63
581.85	-31.55
582.19	36.41
582.53	-46.12
582.87	43.69
583.21	24.27
583.55	84.95
583.89	133.50
584.23	-41.26
584.57	21.85
584.91	-12.14
585.25	-14.56
585.59	75.24
585.93	60.68
586.27	-67.96
586.61	-9.71
586.95	31.55
587.29	2.43
587.63	7.28
587.97	-14.56
588.31	-63.11
588.65	-21.85
588.99	14.56
589.33	67.96
589.67	65.53
590.01	7.28
590.34	-16.99
590.68	21.85
591.02	33.98
591.36	-55.83
591.70	-65.54
592.04	9.71
592.38	24.27
592.72	-21.85
593.06	4.85
593.40	-4.85
593.74	-63.11
594.07	-75.24
594.41	-135.92
594.75	50.97
595.09	50.97
595.43	36.41
595.77	2.43
596.11	-14.56
596.44	-29.13
596.78	-33.98
597.12	-145.63
597.46	-46.12
597.80	12.14
598.14	-111.65
598.47	99.52
598.81	38.84
599.15	0.00
599.49	24.27
599.83	-46.12
600.17	-48.54
600.50	43.69
600.84	58.25
601.18	123.79
601.52	-138.35
601.85	-33.98
602.19	60.68
602.53	131.07
602.87	-2.43
603.20	101.94
603.54	-123.79
603.88	-12.14
604.22	-36.41
604.55	-72.82
604.89	109.22
605.23	60.68
605.57	-43.69
605.90	106.80
606.24	21.84
606.58	-14.56
606.91	12.14
607.25	-7.28
607.59	29.13
607.92	-9.71
608.26	-2.43
608.60	-104.37
608.94	16.99
609.27	-33.98
609.61	-58.25
609.94	-21.85
610.28	-46.12
610.62	12.14
610.95	-55.83
611.29	-38.84
611.63	-104.37
611.96	-7.28
612.30	-9.71
612.64	-33.98
612.97	38.84
613.31	-46.12
613.64	53.40
613.98	-38.84
614.32	41.26
614.65	14.56
614.99	33.98
615.32	-26.70
615.66	38.84
615.99	-60.68
616.33	-70.39
616.67	-148.06
617.00	-70.39
617.34	19.42
617.67	-7.28
618.01	-41.26
618.34	-63.11
618.68	-55.83
619.01	24.27
619.35	-19.42
619.68	9.71
620.02	31.55
620.35	-12.14
620.69	-31.55
621.02	-9.71
621.36	-97.09
621.69	-53.40
622.03	-9.71
622.36	-4.85
622.70	-58.25
623.03	24.27
623.37	55.83
623.70	38.84
624.04	70.39
624.37	9.71
624.70	36.41
625.04	-29.13
625.37	-14.56
625.71	-53.40
626.04	-24.27
626.38	-80.10
626.71	-33.98
627.04	-41.26
627.38	-152.91
627.71	-89.81
628.05	-104.37
628.38	21.85
628.71	-26.70
629.05	-41.26
629.38	-9.71
629.71	33.98
630.05	24.27
630.38	-4.85
630.72	36.41
631.05	-48.54
631.38	-21.84
631.72	26.70
632.05	2.43
632.38	123.79
632.72	-24.27
633.05	41.26
633.38	-24.27
633.71	-2.43
634.05	106.80
634.38	-118.93
634.71	-19.42
635.05	-143.21
635.38	72.82
635.71	-53.40
636.04	-67.96
636.38	92.23
636.71	31.55
637.04	-21.85
637.38	46.12
637.71	-43.69
638.04	50.97
638.37	33.98
638.70	12.14
639.04	-63.11
639.37	-70.39
639.70	-111.65
640.03	-12.14
640.37	-63.11
640.70	70.39
641.03	-50.97
641.36	-7.28
641.69	31.55
642.03	-26.70
642.36	-16.99
642.69	-94.66
643.02	4.85
643.35	114.08
643.68	38.84
644.02	-114.08
644.35	-36.41
644.68	109.23
645.01	-80.10
645.34	-33.98
645.67	50.97
646.00	16.99
646.33	-65.54
646.67	41.26
647.00	12.14
647.33	-31.55
647.66	-31.55
647.99	-143.21
648.32	38.84
648.65	50.97
648.98	-87.38
649.31	-14.56
649.64	72.82
649.97	87.38
650.31	16.99
650.64	29.13
650.97	-84.95
651.30	-31.55
651.63	29.13
651.96	-36.41
652.29	19.42
652.62	26.70
652.95	-19.42
653.28	48.54
653.61	36.41
653.94	33.98
654.27	-19.42
654.60	14.56
654.93	9.71
655.26	-92.23
655.59	-12.14
655.92	92.23
656.25	89.81
656.58	43.69
656.91	-16.99
657.24	-67.96
657.57	70.39
657.90	-33.98
658.22	41.26
658.55	82.53
658.88	-19.42
659.21	-58.25
659.54	2.43
659.87	21.84
660.20	12.14
660.53	0.00
660.86	-19.42
661.19	43.69
661.52	-67.96
661.85	21.85
662.17	-24.27
662.50	4.85
662.83	-16.99
663.16	101.94
663.49	60.68
663.82	2.43
664.15	16.99
664.47	21.84
664.80	-12.14
665.13	-41.26
665.46	-16.99
665.79	-46.12
666.12	14.56
666.44	-16.99
666.77	70.39
667.10	41.26
667.43	60.68
667.76	-50.97
668.08	89.81
668.41	-36.41
668.74	19.42
669.07	2.43
669.40	-9.71
669.72	-43.69
670.05	29.13
670.38	19.42
670.71	55.83
671.03	29.13
671.36	36.41
671.69	-33.98
672.02	-77.67
672.34	29.13
672.67	-4.85
673.00	-77.67
673.32	99.52
673.65	-77.67
673.98	-19.42
674.31	-12.14
674.63	-9.71
674.96	24.27
675.29	38.84
675.61	72.82
675.94	-70.39
676.27	43.69
676.59	36.41
676.92	-33.98
677.25	60.68
677.57	38.84
677.90	-12.14
678.23	-19.42
678.55	-36.41
678.88	-21.85
679.20	-38.84
679.53	-41.26
679.86	48.54
680.18	9.71
680.51	-26.70
680.83	-53.40
681.16	-106.80
681.49	-53.40
681.81	58.25
682.14	-63.11
682.46	36.41
682.79	24.27
683.11	12.14
683.44	24.27
683.77	46.12
684.09	-12.14
684.42	12.14
684.74	84.95
685.07	143.21
685.39	-152.92
685.72	-55.83
686.04	48.54
686.37	-58.25
686.69	-67.96
687.02	46.12
687.34	-67.96
687.67	9.71
687.99	33.98
688.32	-97.09
688.64	-118.93
688.97	-4.85
689.29	-14.56
689.62	21.84
689.94	-24.27
690.27	16.99
690.59	55.83
690.91	75.24
691.24	-9.71
691.56	2.43
691.89	53.40
692.21	-14.56
692.54	53.40
692.86	-38.84
693.18	133.50
693.51	46.12
693.83	123.79
694.16	-70.39
694.48	67.96
694.80	-116.51
695.13	26.70
695.45	9.71
695.78	-26.70
696.10	9.71
696.42	-111.65
696.75	24.27
697.07	-77.67
697.39	-12.14
697.72	9.71
698.04	26.70
698.36	89.81
698.69	111.65
699.01	-12.14
699.33	-33.98
699.66	2.43
699.98	-53.40
700.30	-41.26
700.62	-41.26
700.95	50.97
701.27	-63.11
701.59	-31.55
701.92	-2.43
702.24	63.11
702.56	-135.92
702.88	80.10
703.21	-80.10
703.53	-33.98
703.85	7.28
704.17	29.13
704.50	41.26
704.82	4.85
705.14	-953.90
705.46	-63.11
705.78	24.27
706.11	29.13
706.43	-60.68
706.75	-50.97
707.07	12.14
707.39	2.43
707.72	-48.54
708.04	-89.81
708.36	36.41
708.68	-33.98
709.00	-97.09
709.32	-48.54
709.65	-41.26
709.97	-72.82
710.29	-21.85
710.61	24.27
710.93	-43.69
711.25	-41.26
711.57	55.83
711.90	65.53
712.22	-89.81
712.54	-21.85
712.86	-9.71
713.18	-41.26
713.50	128.64
713.82	-70.39
714.14	-75.24
714.46	82.53
714.78	70.39
715.10	-4.85
715.42	0.00
715.75	14.56
716.07	12.14
716.39	65.53
716.71	-21.84
717.03	72.82
717.35	7.28
717.67	31.55
717.99	-77.67
718.31	-14.56
718.63	-7.28
718.95	-36.41
719.27	92.23
719.59	0.00
719.91	-128.64
720.23	-19.42
720.55	-82.53
720.87	-41.26
721.19	53.40
721.51	-99.52
721.83	14.56
722.15	-70.39
722.47	-43.69
722.78	-60.68
723.10	36.41
723.42	-46.12
723.74	-26.70
724.06	-26.70
724.38	-53.40
724.70	58.25
725.02	53.40
725.34	-89.81
725.66	-9.71
725.98	2.43
726.30	19.42
726.61	-65.53
726.93	-43.69
727.25	24.27
727.57	-131.07
727.89	14.56
728.21	-82.53
728.53	50.97
728.84	31.55
729.16	-55.83
729.48	-89.81
729.80	-55.83
730.12	-53.40
730.44	-26.70
730.75	92.23
731.07	9.71
731.39	41.26
731.71	-12.14
732.03	-104.37
732.34	-99.52
732.66	77.67
732.98	-94.66
733.30	-99.52
733.62	-46.12
733.93	-21.84
734.25	63.11
734.57	94.66
734.89	0.00
735.20	77.67
735.52	-31.55
735.84	21.84
736.16	-157.77
736.47	9.71
736.79	-77.67
737.11	21.84
737.42	92.23
737.74	26.70
738.06	-53.40
738.38	29.13
738.69	21.85
739.01	26.70
739.33	-67.96
739.64	2.43
739.96	-19.42
740.28	63.11
740.59	-21.85
740.91	-135.92
741.23	7.28
741.54	63.11
741.86	41.26
742.17	121.36
742.49	-29.13
742.81	-41.26
743.12	-7.28
743.44	-55.83
743.76	31.55
744.07	-87.38
744.39	-53.40
744.70	75.24
745.02	-60.68
745.34	-14.56
745.65	19.42
745.97	-16.99
746.28	0.00
746.60	-33.98
746.91	65.53
747.23	101.94
747.55	-4.85
747.86	-19.42
748.18	46.12
748.49	12.14
748.81	-41.26
749.12	41.26
749.44	53.40
749.75	-33.98
750.07	-2.43
750.38	80.10
750.70	48.54
751.01	-12.14
751.33	2.43
751.64	77.67
751.96	-26.70
752.27	19.42
752.59	-36.41
752.90	38.84
753.22	-82.53
753.53	-43.69
753.84	4.85
754.16	4.85
754.47	-38.84
754.79	-84.95
755.10	-26.70
755.42	-41.26
755.73	12.14
756.04	48.54
756.36	-2.43
756.67	-16.99
756.99	-116.51
757.30	-50.97
757.61	4.85
757.93	-43.69
758.24	-33.98
758.55	38.84
758.87	63.11
759.18	-148.06
759.50	26.70
759.81	-50.97
760.12	33.98
760.44	-31.55
760.75	-14.56
761.06	29.13
761.38	-33.98
761.69	114.08
762.00	-7.28
762.32	12.14
762.63	-19.42
762.94	84.95
763.25	-58.25
763.57	14.56
763.88	-38.84
764.19	-19.42
764.51	-46.12
764.82	-53.40
765.13	-89.81
765.44	-53.40
765.76	-38.84
766.07	104.37
766.38	-41.26
766.69	-46.12
767.01	128.64
767.32	-14.56
767.63	-21.84
767.94	53.40
768.25	55.83
768.57	162.62
768.88	80.10
769.19	2.43
769.50	-70.39
769.81	-33.98
770.13	-75.24
770.44	-24.27
770.75	-12.14
771.06	-97.09
771.37	-16.99
771.68	-53.40
772.00	-50.97
772.31	21.84
772.62	82.53
772.93	-87.38
773.24	-12.14
773.55	-12.14
773.86	0.00
774.17	55.83
774.49	-48.54
774.80	55.83
775.11	46.12
775.42	-19.42
775.73	16.99
776.04	63.11
776.35	14.56
776.66	-21.85
776.97	-63.11
777.28	-31.55
777.59	138.35
777.90	2.43
778.21	-16.99
778.52	-55.83
778.83	-138.35
779.15	0.00
779.46	19.42
779.77	16.99
780.08	-53.40
780.39	-31.55
780.70	9.71
781.01	9.71
781.32	-36.41
781.63	12.14
781.94	106.80
782.25	9.71
782.56	33.98
782.86	12.14
783.17	-4.85
783.48	-106.80
783.79	0.00
784.10	-70.39
784.41	24.27
784.72	-26.70
785.03	-48.54
785.34	135.92
785.65	-4.85
785.96	-36.41
786.27	-60.68
786.58	-87.38
786.89	-24.27
787.19	21.85
787.50	-75.24
787.81	-4.85
788.12	-63.11
788.43	-99.52
788.74	-77.67
789.05	-21.84
789.36	89.81
789.66	31.55
789.97	-43.69
790.28	43.69
790.59	16.99
790.90	26.70
791.21	43.69
791.52	-89.81
791.82	-55.83
792.13	-33.98
792.44	-60.68
792.75	-60.68
793.06	-50.97
793.36	-4.85
793.67	36.41
793.98	9.71
794.29	-7.28
794.59	-116.51
794.90	46.12
795.21	-101.94
795.52	92.23
795.82	-16.99
796.13	-63.11
796.44	-114.08
796.75	148.06
797.05	31.55
797.36	-126.22
797.67	-16.99
797.98	-97.09
798.28	-131.07
798.59	14.56
798.90	-9.71
799.20	14.56
799.51	53.40
799.82	12.14
800.12	21.84
800.43	-53.40
800.74	12.14
801.04	7.28
801.35	-41.26
801.66	2.43
801.96	-41.26
802.27	-111.65
802.58	-24.27
802.88	-9.71
803.19	36.41
803.50	29.13
803.80	26.70
804.11	36.41
804.41	77.67
804.72	-138.35
805.03	-4.85
805.33	65.54
805.64	-58.25
805.94	77.67
806.25	-19.42
806.56	21.84
806.86	2.43
807.17	-38.84
807.47	-14.56
807.78	-4.85
808.08	36.41
808.39	4.85
808.69	-97.09
809.00	12.14
809.30	26.70
809.61	94.66
809.91	-94.66
810.22	63.11
810.52	46.12
810.83	-33.98
811.13	-77.67
811.44	-82.53
811.74	50.97
812.05	-80.10
812.35	-7.28
812.66	-131.07
812.96	16.99
813.27	-89.81
813.57	-16.99
813.88	-87.38
814.18	50.97
814.49	16.99
814.79	41.26
815.09	19.42
815.40	-14.56
815.70	-135.92
816.01	7.28
816.31	-41.26
816.61	-14.56
816.92	80.10
817.22	43.69
817.53	-7.28
817.83	-101.94
818.13	104.37
818.44	21.84
818.74	75.24
819.04	-46.12
819.35	-70.39
819.65	-58.25
819.95	82.53
820.26	65.54
820.56	-16.99
820.86	4.85
821.17	-92.23
821.47	26.70
821.77	12.14
822.08	-46.12
822.38	94.66
822.68	-31.55
822.99	-7.28
823.29	-53.40
823.59	-48.54
823.89	104.37
824.20	31.55
824.50	7.28
824.80	-21.85
825.10	-92.23
825.41	41.26
825.71	-53.40
826.01	38.84
826.31	-41.26
826.62	36.41
826.92	-72.82
827.22	99.52
827.52	-38.84
827.82	-26.70
828.13	0.00
828.43	36.41
828.73	26.70
829.03	29.13
829.33	14.56
829.64	43.69
829.94	-104.37
830.24	-7.28
830.54	-67.96
830.84	-21.85
831.14	41.26
831.45	38.84
831.75	89.81
832.05	0.00
832.35	2.43
832.65	-14.56
832.95	24.27
833.25	12.14
833.55	33.98
833.85	-29.13
834.16	75.24
834.46	2.43
834.76	-80.10
835.06	-21.85
835.36	-33.98
835.66	0.00
835.96	-46.12
836.26	-12.14
836.56	21.84
836.86	-138.35
837.16	14.56
837.46	-14.56
837.76	-4.85
838.06	-97.09
838.36	-48.54
838.66	-89.81
838.96	-65.53
839.26	75.24
839.56	-24.27
839.86	-4.85
840.16	87.38
840.46	24.27
840.76	33.98
841.06	123.79
841.36	80.10
841.66	-121.36
841.96	84.95
842.26	41.26
842.56	-24.27
842.86	12.14
843.16	-60.68
843.46	-116.51
843.76	-7.28
844.06	-12.14
844.36	7.28
844.66	-24.27
844.95	-4.85
845.25	-21.84
845.55	46.12
845.85	21.85
846.15	-99.52
846.45	-65.54
846.75	55.83
847.05	-9.71
847.35	9.71
847.64	-70.39
847.94	2.43
848.24	-87.38
848.54	38.84
848.84	-58.25
849.14	-67.96
849.43	-63.11
849.73	-101.94
850.03	-92.23
850.33	-97.09
850.63	-63.11
850.92	21.85
851.22	12.14
851.52	46.12
851.82	-29.13
852.12	7.28
852.41	-7.28
852.71	-67.96
853.01	53.40
853.31	29.13
853.60	75.24
853.90	46.12
854.20	-19.42
854.50	-36.41
854.79	58.25
855.09	-12.14
855.39	-26.70
855.69	29.13
855.98	24.27
856.28	33.98
856.58	63.11
856.87	53.40
857.17	-48.54
857.47	31.55
857.76	2.43
858.06	-41.26
858.36	-55.83
858.65	-4.85
858.95	-101.94
859.25	-9.71
859.54	31.55
859.84	7.28
860.14	-2.43
860.43	-36.41
860.73	-77.67
861.03	53.40
861.32	-12.14
861.62	36.41
861.91	87.38
862.21	106.80
862.51	21.84
862.80	-12.14
863.10	-63.11
863.39	-77.67
863.69	14.56
863.98	-60.68
864.28	-60.68
864.58	-123.79
864.87	111.65
865.17	16.99
865.46	-75.24
865.76	-16.99
866.05	16.99
866.35	-26.70
866.64	65.53
866.94	9.71
867.23	186.90
867.53	-26.70
867.82	-179.61
868.12	41.26
868.41	-72.82
868.71	-60.68
869.00	82.53
869.30	75.24
869.59	-14.56
869.89	-26.70
870.18	16.99
870.48	-7.28
870.77	-89.81
871.06	21.84
871.36	-2.43
871.65	-58.25
871.95	-24.27
872.24	12.14
872.54	97.09
872.83	19.42
873.12	-9.71
873.42	-21.84
873.71	-33.98
874.01	-72.82
874.30	-121.36
874.59	4.85
874.89	-41.26
875.18	80.10
875.47	7.28
875.77	-84.95
876.06	41.26
876.35	-70.39
876.65	24.27
876.94	7.28
877.23	-67.96
877.53	-58.25
877.82	19.42
878.11	-80.10
878.41	31.55
878.70	0.00
878.99	9.71
879.29	-4.85
879.58	55.83
879.87	36.41
880.16	53.40
880.46	-63.11
880.75	-46.12
881.04	-19.42
881.34	70.39
881.63	26.70
881.92	16.99
882.21	-24.27
882.50	-97.09
882.80	-53.40
883.09	21.85
883.38	24.27
883.67	-94.66
883.97	-14.56
884.26	-36.41
884.55	-16.99
884.84	-12.14
885.13	-77.67
885.43	-70.39
885.72	-75.24
886.01	138.35
886.30	-70.39
886.59	87.38
886.88	-50.97
887.17	-43.69
887.47	-24.27
887.76	-36.41
888.05	33.98
888.34	-148.06
888.63	-148.06
888.92	-148.06
>>>>>End Processed Spectral Data<<<<<
